1541131399,0.05,0.05,0.05,0.05,0.05,0.05,0.05,0.05,0.05,0.06,0.06,0.05,0.04,0.05,0.05,0.05,0.05,0.04,0.04,0.05,0.05,0.04,0.05,0.05,0.06,0.06,0.04,0.10,0.24,0.38,0.34,0.17,0.06,-0.13,-0.26,-0.20,-0.11,-0.02,0.01,0.02,0.02,0.04,0.05,0.06,0.05,0.05,0.05,0.05,0.05,0.05,0.05,0.05,0.05,0.05,0.06,0.05,0.05,0.05,0.05,0.06,0.07,0.08,0.07,0.07,0.07,0.08,0.08,0.08,0.10,0.08,0.07,0.07,0.08,0.07,0.06,0.05,0.02,0.01,-0.01,-0.02,-0.04,-0.05,-0.04,-0.04,-0.02,-0.01,0.00,0.01,0.01,0.01,0.01,0.02,0.02,0.04,0.04,0.02,0.02,0.04,0.04,0.04,0.02,0.04,0.02,0.02,0.04,0.04,0.04,0.05,0.06,0.07,0.07,0.07,0.06,0.06,0.07,0.07,0.07,0.07,0.06,0.07,0.06,0.05,0.04,0.04,0.06,0.05,0.02,0.02,0.02,0.04,0.06,0.06,0.06,0.05,0.05,0.06,0.07,0.06,0.05,0.05,0.05,0.05,0.05,0.05,0.04,0.04,0.05,0.05,0.05,0.04,0.02,0.02,0.02,0.02,0.04,0.04,0.04,0.04,0.04,0.04,0.05,0.05,0.06,0.14,0.31,0.38,0.23,0.10,-0.02,-0.18,-0.19,-0.11,-0.04,0.00,0.02,0.02,0.04,0.05,0.04,0.05,1541131400,0.05,0.04,0.05,0.05,0.05,0.05,0.05,0.05,0.06,0.05,0.06,0.07,0.07,0.07,0.07,0.06,0.06,0.07,0.07,0.08,0.08,0.08,0.08,0.07,0.08,0.08,0.08,0.06,0.06,0.06,0.05,0.02,0.01,-0.01,-0.04,-0.04,-0.04,-0.04,-0.02,-0.02,-0.01,-0.01,0.00,0.01,0.02,0.02,0.02,0.02,0.04,0.04,0.04,0.02,0.02,0.04,0.05,0.05,0.05,0.05,0.06,0.07,0.06,0.07,0.07,0.06,0.05,0.05,0.06,0.06,0.05,0.04,0.02,0.05,0.05,0.05,0.05,0.05,0.04,0.04,0.04,0.05,0.05,0.05,0.05,0.05,0.05,0.05,0.05,0.05,0.05,0.05,0.05,0.05,0.05,0.05,0.05,0.05,0.05,0.05,0.05,0.05,0.04,0.04,0.05,0.05,0.05,0.05,0.05,0.05,0.04,0.02,0.02,0.02,0.04,0.04,0.05,0.05,0.05,0.06,0.05,0.05,0.05,0.05,0.13,0.29,0.40,0.29,0.10,0.01,-0.16,-0.24,-0.18,-0.08,-0.01,0.02,0.05,0.05,0.06,0.05,0.05,0.05,0.05,0.06,0.06,0.05,0.05,0.06,0.05,0.05,0.05,0.05,0.05,0.06,0.06,0.05,0.05,0.06,0.06,0.07,0.07,0.07,0.08,0.08,0.08,0.08,0.08,0.07,0.07,0.06,0.05,0.04,0.02,0.01,-0.01,-0.02,-0.02,-0.04,-0.04,-0.02,-0.02,-0.02,1541131401,0.00,0.00,0.01,0.02,0.04,0.04,0.04,0.04,0.05,0.05,0.05,0.05,0.05,0.05,0.05,0.06,0.05,0.05,0.05,0.05,0.05,0.05,0.05,0.05,0.05,0.05,0.05,0.05,0.05,0.05,0.05,0.05,0.05,0.05,0.05,0.05,0.05,0.05,0.05,0.05,0.05,0.05,0.05,0.05,0.05,0.05,0.05,0.05,0.04,0.05,0.05,0.05,0.06,0.06,0.06,0.06,0.06,0.05,0.05,0.04,0.04,0.04,0.04,0.04,0.05,0.05,0.05,0.05,0.04,0.04,0.05,0.04,0.02,0.12,0.30,0.43,0.32,0.22,0.05,-0.22,-0.29,-0.20,-0.10,-0.02,0.01,0.02,0.02,0.02,0.04,0.05,0.05,0.05,0.05,0.06,0.07,0.06,0.05,0.05,0.06,0.08,0.10,0.08,0.06,0.05,0.05,0.06,0.06,0.07,0.07,0.07,0.07,0.08,0.08,0.08,0.08,0.08,0.10,0.08,0.07,0.05,0.02,0.01,0.00,-0.02,-0.05,-0.05,-0.06,-0.06,-0.04,0.01,0.02,0.02,0.02,0.01,0.02,0.02,0.02,0.02,0.04,0.04,0.04,0.05,0.04,0.05,0.05,0.05,0.05,0.05,0.06,0.06,0.05,0.05,0.06,0.06,0.05,0.05,0.04,0.05,0.05,0.05,0.02,0.04,0.05,0.05,0.04,0.05,0.05,0.05,0.04,0.04,0.04,0.04,0.04,0.05,0.05,0.05,0.04,0.04,0.05,0.05,1541131402,0.05,0.05,0.05,0.05,0.06,0.06,0.06,0.06,0.05,0.04,0.04,0.05,0.05,0.04,0.05,0.05,0.04,0.05,0.05,0.05,0.05,0.04,0.02,0.07,0.23,0.40,0.41,0.26,0.13,-0.10,-0.30,-0.26,-0.14,-0.05,0.00,0.02,0.04,0.04,0.05,0.04,0.05,0.05,0.06,0.05,0.05,0.05,0.05,0.05,0.05,0.05,0.06,0.06,0.07,0.06,0.06,0.06,0.06,0.06,0.07,0.08,0.10,0.10,0.10,0.10,0.10,0.08,0.06,0.04,0.06,0.07,0.05,0.01,0.01,0.00,-0.01,-0.04,-0.05,-0.05,-0.04,-0.02,-0.02,0.00,0.01,0.00,0.00,0.02,0.04,0.05,0.04,0.02,0.04,0.05,0.05,0.04,0.02,0.02,0.05,0.07,0.06,0.04,0.04,0.06,0.08,0.07,0.06,0.05,0.05,0.05,0.04,0.04,0.04,0.05,0.05,0.04,0.02,0.02,0.04,0.05,0.05,0.06,0.08,0.07,0.06,0.05,0.04,0.01,0.04,0.07,0.07,0.05,0.02,0.02,0.02,0.04,0.04,0.05,0.06,0.06,0.05,0.04,0.04,0.05,0.05,0.05,0.05,0.05,0.05,0.07,0.07,0.07,0.06,0.05,0.04,0.02,0.05,0.18,0.37,0.48,0.35,0.23,0.01,-0.29,-0.32,-0.20,-0.11,-0.04,0.00,0.02,0.04,0.02,0.05,0.06,0.06,0.06,0.05,0.05,0.05,0.05,0.05,0.05,1541131402,0.06,0.06,0.07,0.07,0.06,0.06,0.06,0.07,0.07,0.07,0.07,0.07,0.08,0.10,0.10,0.10,0.10,0.08,0.07,0.07,0.06,0.05,0.04,0.01,0.00,-0.02,-0.05,-0.05,-0.05,-0.05,-0.04,-0.04,-0.02,0.00,0.01,0.01,0.01,0.02,0.02,0.02,0.05,0.05,0.05,0.05,0.05,0.04,0.04,0.04,0.05,0.05,0.05,0.05,0.05,0.05,0.06,0.06,0.05,0.05,0.05,0.04,0.04,0.04,0.05,0.05,0.05,0.05,0.05,0.05,0.05,0.05,0.04,0.04,0.05,0.05,0.05,0.04,0.05,0.06,0.06,0.05,0.06,0.05,0.05,0.05,0.05,0.05,0.05,0.05,0.06,0.06,0.05,0.05,0.05,0.04,0.04,0.04,0.04,0.04,0.04,0.05,0.05,0.05,0.05,0.05,0.05,0.04,0.04,0.13,0.30,0.43,0.35,0.20,0.04,-0.22,-0.29,-0.20,-0.11,-0.05,0.00,0.02,0.02,0.02,0.04,0.05,0.05,0.05,0.05,0.05,0.06,0.06,0.06,0.06,0.06,0.06,0.06,0.06,0.06,0.06,0.07,0.07,0.06,0.07,0.07,0.07,0.08,0.08,0.08,0.08,0.08,0.07,0.07,0.07,0.07,0.05,0.05,0.01,-0.01,-0.01,-0.02,-0.02,-0.04,-0.04,-0.04,-0.02,-0.01,0.00,0.01,0.02,0.02,0.02,0.04,0.05,0.04,0.02,0.04,0.05,0.05,0.05,0.05,0.05,1541131403,0.06,0.06,0.06,0.05,0.05,0.05,0.06,0.05,0.05,0.05,0.05,0.05,0.05,0.05,0.05,0.05,0.05,0.05,0.05,0.05,0.05,0.05,0.05,0.04,0.04,0.05,0.04,0.04,0.04,0.04,0.06,0.07,0.08,0.06,0.05,0.05,0.04,0.04,0.04,0.02,0.02,0.05,0.05,0.05,0.05,0.05,0.05,0.05,0.05,0.05,0.06,0.17,0.32,0.41,0.28,0.13,-0.01,-0.24,-0.26,-0.17,-0.06,0.00,0.02,0.02,0.04,0.04,0.04,0.04,0.04,0.04,0.04,0.05,0.05,0.05,0.05,0.06,0.06,0.05,0.05,0.07,0.08,0.07,0.07,0.08,0.07,0.07,0.07,0.07,0.07,0.07,0.08,0.08,0.08,0.07,0.07,0.07,0.06,0.05,0.02,0.00,0.00,-0.01,-0.02,-0.04,-0.05,-0.04,-0.04,-0.02,0.00,0.01,0.02,0.02,0.02,0.02,0.01,0.01,0.04,0.05,0.06,0.06,0.07,0.06,0.05,0.04,0.05,0.05,0.05,0.05,0.05,0.05,0.06,0.05,0.05,0.05,0.04,0.05,0.06,0.06,0.06,0.05,0.04,0.05,0.05,0.05,0.04,0.04,0.05,0.05,0.05,0.04,0.04,0.04,0.05,0.05,0.05,0.05,0.05,0.05,0.05,0.06,0.06,0.05,0.05,0.04,0.04,0.05,0.05,0.06,0.06,0.05,0.05,0.05,0.05,0.06,0.06,0.08,0.19,0.32,0.35,0.14,1541131404,0.01,-0.07,-0.20,-0.19,-0.10,-0.01,0.04,0.04,0.02,0.04,0.04,0.04,0.05,0.05,0.05,0.05,0.05,0.05,0.06,0.06,0.06,0.06,0.07,0.07,0.06,0.06,0.07,0.07,0.07,0.06,0.07,0.07,0.08,0.10,0.10,0.08,0.08,0.08,0.07,0.06,0.05,0.05,0.04,0.02,0.01,-0.01,-0.02,-0.04,-0.05,-0.05,-0.04,-0.02,-0.02,-0.01,0.00,0.01,0.02,0.02,0.04,0.04,0.05,0.05,0.05,0.05,0.05,0.05,0.05,0.05,0.05,0.05,0.05,0.05,0.05,0.05,0.05,0.05,0.05,0.04,0.05,0.06,0.06,0.05,0.05,0.05,0.04,0.05,0.05,0.05,0.05,0.05,0.05,0.05,0.05,0.05,0.05,0.05,0.05,0.05,0.05,0.05,0.05,0.05,0.05,0.05,0.05,0.04,0.04,0.04,0.04,0.04,0.04,0.04,0.05,0.05,0.06,0.06,0.07,0.06,0.06,0.05,0.05,0.04,0.04,0.02,0.02,0.02,0.02,0.02,0.04,0.05,0.05,0.06,0.06,0.07,0.06,0.10,0.23,0.37,0.37,0.18,0.05,-0.08,-0.24,-0.19,-0.10,-0.01,0.02,0.04,0.05,0.05,0.05,0.05,0.05,0.05,0.05,0.04,0.04,0.02,0.02,0.02,0.02,0.04,0.05,0.05,0.06,0.06,0.05,0.04,0.04,0.05,0.05,0.07,0.10,0.10,0.11,0.11,0.10,0.10,0.10,0.08,1541131405,0.08,0.06,0.05,0.02,0.00,0.00,-0.01,-0.04,-0.02,-0.01,-0.01,-0.02,-0.02,-0.02,-0.01,0.00,0.00,0.01,0.01,0.02,0.04,0.06,0.10,0.12,0.10,0.06,0.04,0.01,0.00,-0.01,0.00,0.01,0.02,0.04,0.05,0.02,0.00,0.02,0.05,0.07,0.07,0.08,0.10,0.08,0.10,0.11,0.11,0.11,0.13,0.17,0.18,0.16,0.12,0.06,0.01,-0.04,-0.07,-0.07,-0.06,-0.02,0.01,0.04,0.05,0.10,0.10,0.06,0.07,0.08,0.08,0.05,0.06,0.10,0.13,0.20,0.26,0.28,0.23,0.13,0.06,0.01,-0.02,-0.02,-0.04,-0.04,-0.02,-0.01,0.00,-0.02,-0.02,-0.04,-0.07,-0.06,-0.07,-0.08,-0.08,-0.07,-0.05,-0.01,0.00,0.00,0.00,0.00,0.01,0.04,0.06,0.06,0.12,0.26,0.40,0.35,0.19,0.05,-0.17,-0.28,-0.20,-0.11,-0.02,0.01,0.02,0.00,0.00,0.00,0.01,0.01,0.01,0.01,0.01,0.02,0.07,0.10,0.11,0.11,0.10,0.10,0.10,0.10,0.10,0.08,0.07,0.07,0.08,0.11,0.11,0.12,0.12,0.13,0.12,0.12,0.12,0.11,0.08,0.07,0.07,0.07,0.05,0.01,-0.01,-0.02,-0.02,-0.04,-0.02,-0.01,-0.01,-0.02,0.00,0.05,0.06,0.07,0.07,0.07,0.06,0.05,0.05,0.05,0.05,0.05,0.05,0.05,0.04,0.02,1541131406,0.01,0.00,0.00,0.00,0.00,0.01,0.01,0.01,0.02,0.02,0.02,0.04,0.04,0.02,0.04,0.05,0.05,0.05,0.05,0.05,0.06,0.06,0.06,0.06,0.06,0.06,0.05,0.05,0.05,0.04,0.02,0.02,0.04,0.02,0.01,0.01,-0.01,-0.01,-0.01,0.01,0.05,0.07,0.10,0.11,0.10,0.08,0.07,0.06,0.06,0.06,0.04,0.01,0.00,0.00,0.01,0.02,0.06,0.07,0.10,0.10,0.11,0.11,0.11,0.10,0.08,0.07,0.06,0.05,0.04,0.04,0.04,0.05,0.04,0.02,0.02,0.01,0.02,0.05,0.06,0.06,0.06,0.07,0.07,0.07,0.07,0.07,0.08,0.07,0.06,0.06,0.07,0.17,0.35,0.44,0.29,0.14,-0.02,-0.24,-0.30,-0.20,-0.12,-0.04,0.00,0.02,0.04,0.05,0.06,0.06,0.07,0.06,0.06,0.07,0.07,0.06,0.06,0.05,0.04,0.02,0.04,0.04,0.04,0.04,0.02,0.04,0.04,0.04,0.05,0.05,0.06,0.06,0.07,0.07,0.07,0.07,0.06,0.05,0.04,0.02,0.02,0.00,-0.01,-0.02,-0.04,-0.05,-0.04,-0.02,-0.01,0.01,0.05,0.07,0.08,0.10,0.10,0.07,0.06,0.04,0.02,0.02,0.05,0.07,0.10,0.07,0.05,0.05,0.05,0.06,0.04,-0.01,-0.04,-0.04,-0.05,-0.04,-0.02,-0.02,-0.04,-0.05,-0.07,-0.05,0.00,0.05,1541131407,0.12,0.14,0.14,0.16,0.17,0.18,0.14,0.06,0.00,-0.05,-0.07,-0.05,-0.02,-0.01,0.00,0.00,-0.01,-0.01,-0.02,-0.02,0.01,0.05,0.10,0.13,0.14,0.14,0.12,0.08,0.06,0.05,0.07,0.11,0.14,0.18,0.18,0.16,0.12,0.06,0.00,-0.04,-0.05,-0.02,0.02,0.08,0.14,0.18,0.14,0.11,0.06,0.01,-0.02,-0.04,-0.02,-0.01,0.01,0.02,0.04,0.04,0.04,0.07,0.19,0.36,0.42,0.26,0.11,-0.08,-0.29,-0.28,-0.16,-0.06,0.00,0.04,0.04,0.04,0.06,0.07,0.08,0.08,0.10,0.07,0.05,0.02,0.00,-0.01,-0.01,0.01,0.05,0.06,0.07,0.10,0.11,0.10,0.07,0.06,0.06,0.07,0.12,0.20,0.26,0.30,0.29,0.24,0.17,0.12,0.10,0.07,0.06,0.06,0.05,0.05,0.01,-0.06,-0.13,-0.20,-0.26,-0.32,-0.32,-0.28,-0.19,-0.12,-0.08,-0.06,-0.04,-0.02,-0.01,-0.02,-0.02,-0.01,0.00,0.02,0.05,0.07,0.08,0.10,0.10,0.11,0.11,0.12,0.11,0.11,0.10,0.07,0.06,0.05,0.05,0.05,0.05,0.05,0.05,0.04,0.02,0.01,0.01,0.02,0.05,0.06,0.07,0.06,0.06,0.06,0.07,0.07,0.06,0.05,0.05,0.06,0.07,0.08,0.08,0.11,0.12,0.12,0.12,0.12,0.12,0.12,0.12,0.10,0.08,0.08,1541131408,0.08,0.08,0.07,0.06,0.07,0.06,0.05,0.06,0.06,0.06,0.06,0.06,0.07,0.08,0.08,0.10,0.11,0.12,0.11,0.12,0.12,0.11,0.08,0.10,0.12,0.12,0.07,0.00,0.05,0.17,0.16,0.11,0.07,-0.11,-0.37,-0.41,-0.26,-0.14,-0.07,-0.05,-0.05,-0.05,-0.05,-0.05,-0.04,-0.04,-0.04,0.00,0.05,0.08,0.11,0.12,0.12,0.12,0.11,0.10,0.08,0.10,0.11,0.12,0.12,0.11,0.10,0.08,0.08,0.07,0.05,0.04,0.02,-0.01,0.00,0.02,0.02,0.00,-0.02,-0.04,-0.07,-0.10,-0.10,-0.12,-0.12,-0.11,-0.08,-0.05,-0.01,0.05,0.08,0.08,0.07,0.08,0.10,0.10,0.10,0.10,0.11,0.13,0.16,0.17,0.17,0.18,0.17,0.18,0.19,0.18,0.17,0.12,0.06,-0.01,-0.05,-0.06,-0.06,-0.06,-0.06,-0.07,-0.07,-0.06,-0.06,-0.07,-0.07,-0.05,0.00,0.04,0.06,0.06,0.04,0.01,0.00,0.02,0.08,0.12,0.13,0.14,0.14,0.12,0.11,0.10,0.10,0.10,0.10,0.12,0.12,0.12,0.11,0.10,0.08,0.10,0.10,0.08,0.08,0.07,0.07,0.08,0.10,0.07,0.05,0.02,0.01,0.00,0.01,0.01,0.02,0.02,0.02,0.02,0.04,0.05,0.04,0.04,0.02,0.07,0.25,0.44,0.37,0.25,0.18,0.05,-0.28,-0.35,-0.25,-0.13,1541131409,-0.06,-0.02,-0.01,0.00,0.00,0.00,0.01,0.01,0.02,0.02,0.04,0.05,0.07,0.06,0.07,0.08,0.10,0.10,0.10,0.10,0.10,0.08,0.08,0.08,0.06,0.06,0.06,0.08,0.08,0.10,0.10,0.10,0.08,0.08,0.07,0.06,0.05,0.04,0.02,-0.01,-0.04,-0.06,-0.07,-0.07,-0.07,-0.06,-0.05,-0.04,-0.02,-0.01,0.00,0.01,0.02,0.02,0.02,0.05,0.05,0.05,0.05,0.05,0.04,0.05,0.05,0.04,0.04,0.04,0.02,0.04,0.05,0.05,0.05,0.06,0.06,0.07,0.07,0.06,0.07,0.06,0.05,0.05,0.05,0.05,0.05,0.05,0.05,0.05,0.06,0.05,0.05,0.04,0.04,0.04,0.04,0.04,0.05,0.05,0.05,0.05,0.05,0.05,0.05,0.04,0.04,0.04,0.05,0.05,0.06,0.06,0.06,0.07,0.06,0.06,0.06,0.06,0.05,0.04,0.02,0.04,0.06,0.05,0.05,0.05,0.05,0.05,0.05,0.05,0.04,0.05,0.19,0.38,0.52,0.37,0.23,0.05,-0.29,-0.40,-0.28,-0.14,-0.05,0.00,0.01,0.01,0.04,0.05,0.05,0.05,0.05,0.05,0.06,0.05,0.05,0.05,0.06,0.06,0.06,0.06,0.06,0.06,0.06,0.06,0.05,0.05,0.06,0.07,0.08,0.10,0.11,0.11,0.10,0.10,0.10,0.08,0.07,0.07,0.06,0.05,0.02,0.00,-0.02,-0.05,1541131410,-0.07,-0.07,-0.06,-0.05,-0.04,-0.02,-0.01,-0.01,0.00,0.02,0.05,0.05,0.04,0.04,0.04,0.05,0.05,0.05,0.05,0.05,0.06,0.06,0.06,0.05,0.05,0.06,0.05,0.05,0.05,0.06,0.06,0.05,0.05,0.05,0.05,0.05,0.05,0.04,0.04,0.04,0.02,0.04,0.07,0.08,0.07,0.06,0.05,0.04,0.02,0.05,0.04,0.02,0.04,0.04,0.05,0.05,0.02,0.04,0.04,0.06,0.05,0.04,0.04,0.05,0.05,0.05,0.06,0.06,0.06,0.06,0.05,0.05,0.05,0.04,0.04,0.04,0.04,0.05,0.05,0.05,0.05,0.06,0.05,0.05,0.05,0.05,0.10,0.25,0.42,0.44,0.26,0.11,-0.08,-0.29,-0.29,-0.18,-0.08,-0.01,0.01,0.02,0.02,0.04,0.04,0.05,0.05,0.05,0.06,0.05,0.05,0.05,0.05,0.05,0.05,0.06,0.06,0.07,0.07,0.06,0.06,0.06,0.06,0.06,0.07,0.07,0.08,0.08,0.10,0.10,0.10,0.08,0.08,0.07,0.06,0.06,0.04,0.01,0.00,-0.02,-0.04,-0.05,-0.06,-0.06,-0.05,-0.04,-0.02,-0.01,0.00,0.00,0.01,0.02,0.04,0.04,0.04,0.04,0.04,0.02,0.02,0.02,0.04,0.04,0.04,0.04,0.04,0.04,0.04,0.04,0.04,0.04,0.05,0.05,0.05,0.06,0.06,0.06,0.07,0.07,0.08,0.07,0.07,0.07,1541131411,0.07,0.07,0.06,0.06,0.06,0.06,0.06,0.05,0.05,0.04,0.05,0.05,0.05,0.04,0.04,0.04,0.04,0.04,0.04,0.04,0.04,0.05,0.05,0.05,0.05,0.05,0.05,0.05,0.04,0.05,0.06,0.06,0.06,0.05,0.05,0.06,0.05,0.05,0.04,0.02,0.02,0.02,0.02,0.04,0.06,0.06,0.05,0.04,0.04,0.02,0.07,0.25,0.41,0.49,0.31,0.11,-0.08,-0.30,-0.31,-0.18,-0.07,-0.02,-0.01,-0.04,-0.01,0.04,0.08,0.11,0.10,0.07,0.05,0.05,0.04,0.05,0.06,0.05,0.05,0.05,0.06,0.07,0.08,0.10,0.07,0.06,0.05,0.05,0.06,0.06,0.07,0.08,0.10,0.10,0.10,0.08,0.08,0.08,0.08,0.07,0.06,0.04,0.02,0.00,-0.02,-0.05,-0.06,-0.06,-0.06,-0.05,-0.04,-0.01,0.00,0.02,0.02,0.02,0.02,0.04,0.05,0.05,0.05,0.05,0.04,0.04,0.05,0.04,0.04,0.02,0.04,0.02,0.04,0.05,0.06,0.06,0.05,0.05,0.05,0.05,0.04,0.05,0.06,0.06,0.05,0.05,0.05,0.05,0.04,0.04,0.04,0.04,0.05,0.04,0.05,0.05,0.04,0.02,0.02,0.05,0.06,0.06,0.05,0.06,0.05,0.05,0.06,0.06,0.06,0.05,0.05,0.04,0.04,0.04,0.04,0.04,0.04,0.05,0.06,0.05,0.06,0.07,0.06,0.06,1541131411,0.06,0.06,0.06,0.05,0.05,0.05,0.04,0.02,0.02,0.04,0.06,0.07,0.07,0.06,0.05,0.05,0.06,0.07,0.06,0.06,0.08,0.24,0.42,0.46,0.30,0.19,-0.04,-0.34,-0.38,-0.25,-0.12,-0.04,0.00,-0.01,0.01,0.02,0.02,0.02,0.05,0.06,0.06,0.06,0.05,0.06,0.06,0.07,0.07,0.07,0.07,0.07,0.06,0.06,0.06,0.06,0.07,0.07,0.07,0.08,0.08,0.10,0.10,0.10,0.10,0.10,0.10,0.10,0.08,0.07,0.06,0.05,0.02,-0.01,-0.04,-0.05,-0.06,-0.06,-0.05,-0.02,-0.02,-0.01,0.00,0.01,0.01,0.00,0.00,0.01,0.02,0.02,0.02,0.01,0.01,0.02,0.05,0.05,0.05,0.05,0.04,0.04,0.05,0.06,0.07,0.07,0.06,0.07,0.07,0.06,0.06,0.06,0.06,0.05,0.04,0.02,0.02,0.02,0.02,0.02,0.02,0.02,0.02,0.04,0.04,0.04,0.02,0.04,0.04,0.04,0.05,0.06,0.07,0.08,0.08,0.08,0.07,0.06,0.04,0.02,0.01,0.01,0.02,0.02,0.04,0.04,0.02,0.02,0.02,0.02,0.02,0.05,0.06,0.07,0.08,0.08,0.10,0.11,0.10,0.10,0.10,0.11,0.11,0.11,0.10,0.07,0.04,0.00,-0.01,-0.01,0.01,0.02,0.04,0.05,0.05,0.05,0.04,0.02,0.02,0.02,0.08,0.25,0.42,0.43,1541131412,0.25,0.11,-0.13,-0.35,-0.32,-0.19,-0.08,-0.02,0.01,0.05,0.06,0.08,0.08,0.08,0.08,0.07,0.07,0.06,0.05,0.05,0.04,0.04,0.04,0.02,0.02,0.02,0.04,0.04,0.05,0.06,0.06,0.07,0.07,0.08,0.08,0.08,0.08,0.08,0.08,0.08,0.10,0.08,0.07,0.05,0.04,0.01,0.00,-0.02,-0.05,-0.06,-0.06,-0.06,-0.06,-0.05,-0.02,-0.01,0.00,0.01,0.02,0.02,0.02,0.02,0.04,0.05,0.05,0.05,0.05,0.05,0.05,0.05,0.05,0.05,0.05,0.05,0.05,0.06,0.06,0.06,0.05,0.05,0.05,0.05,0.05,0.05,0.04,0.04,0.04,0.04,0.04,0.05,0.04,0.04,0.05,0.05,0.05,0.05,0.05,0.05,0.05,0.05,0.06,0.06,0.06,0.06,0.06,0.06,0.06,0.05,0.05,0.06,0.05,0.05,0.05,0.05,0.04,0.04,0.04,0.05,0.06,0.06,0.05,0.05,0.05,0.04,0.04,0.04,0.02,0.02,0.02,0.02,0.02,0.02,0.02,0.04,0.04,0.02,0.01,0.08,0.26,0.43,0.41,0.26,0.11,-0.14,-0.34,-0.26,-0.13,-0.02,0.02,0.05,0.05,0.06,0.06,0.07,0.07,0.08,0.07,0.06,0.05,0.04,0.04,0.04,0.05,0.06,0.06,0.06,0.07,0.07,0.06,0.06,0.06,0.06,0.06,0.07,0.07,0.08,0.08,0.08,0.08,0.08,1541131413,0.08,0.07,0.06,0.05,0.05,0.02,0.01,0.00,-0.02,-0.04,-0.05,-0.05,-0.05,-0.04,-0.02,-0.01,0.00,0.01,0.02,0.04,0.05,0.05,0.04,0.04,0.02,0.01,0.01,0.01,0.02,0.04,0.05,0.05,0.05,0.05,0.06,0.06,0.08,0.08,0.07,0.06,0.05,0.05,0.05,0.06,0.06,0.06,0.05,0.05,0.04,0.04,0.04,0.05,0.05,0.05,0.05,0.05,0.05,0.05,0.05,0.05,0.05,0.05,0.04,0.02,0.04,0.04,0.02,0.02,0.02,0.02,0.02,0.04,0.05,0.06,0.06,0.06,0.06,0.05,0.05,0.05,0.05,0.05,0.05,0.05,0.05,0.05,0.05,0.05,0.05,0.05,0.05,0.05,0.05,0.12,0.29,0.40,0.30,0.14,0.01,-0.18,-0.26,-0.18,-0.07,-0.01,0.02,0.02,0.04,0.04,0.04,0.04,0.05,0.05,0.05,0.05,0.05,0.05,0.05,0.05,0.05,0.05,0.05,0.05,0.05,0.05,0.05,0.06,0.06,0.07,0.07,0.07,0.08,0.10,0.10,0.10,0.10,0.10,0.10,0.07,0.07,0.06,0.05,0.02,0.01,-0.01,-0.02,-0.05,-0.06,-0.06,-0.05,-0.05,-0.02,-0.01,0.00,0.01,0.02,0.02,0.04,0.04,0.04,0.04,0.04,0.04,0.05,0.05,0.05,0.05,0.05,0.05,0.05,0.05,0.05,0.05,0.05,0.05,0.05,0.05,0.05,0.05,0.05,0.05,1541131414,0.05,0.05,0.05,0.05,0.05,0.05,0.05,0.05,0.04,0.05,0.04,0.04,0.05,0.05,0.05,0.04,0.05,0.05,0.05,0.05,0.05,0.05,0.05,0.05,0.05,0.05,0.05,0.04,0.04,0.04,0.05,0.05,0.06,0.06,0.06,0.06,0.06,0.05,0.05,0.04,0.04,0.04,0.04,0.04,0.05,0.05,0.05,0.05,0.04,0.04,0.04,0.02,0.07,0.25,0.42,0.47,0.31,0.19,-0.06,-0.34,-0.32,-0.19,-0.08,-0.02,0.01,0.00,0.02,0.02,0.04,0.04,0.04,0.05,0.07,0.07,0.06,0.06,0.05,0.05,0.05,0.05,0.06,0.06,0.06,0.06,0.06,0.06,0.07,0.07,0.08,0.08,0.10,0.10,0.10,0.11,0.11,0.10,0.08,0.07,0.07,0.06,0.05,0.02,-0.01,-0.02,-0.05,-0.07,-0.07,-0.06,-0.05,-0.04,-0.04,-0.02,-0.01,0.01,0.02,0.04,0.04,0.04,0.04,0.05,0.05,0.05,0.05,0.05,0.05,0.05,0.05,0.05,0.05,0.05,0.05,0.05,0.06,0.06,0.06,0.05,0.05,0.05,0.04,0.05,0.05,0.05,0.04,0.04,0.04,0.05,0.06,0.06,0.05,0.05,0.05,0.05,0.05,0.05,0.05,0.05,0.05,0.05,0.05,0.04,0.05,0.05,0.05,0.05,0.05,0.05,0.05,0.06,0.06,0.06,0.05,0.06,0.06,0.05,0.04,0.02,0.04,0.05,0.05,0.05,1541131415,0.05,0.05,0.05,0.05,0.05,0.05,0.04,0.05,0.18,0.37,0.48,0.37,0.24,0.05,-0.28,-0.37,-0.25,-0.12,-0.04,0.00,0.01,0.01,0.02,0.04,0.04,0.05,0.05,0.05,0.05,0.05,0.05,0.05,0.05,0.05,0.05,0.05,0.06,0.06,0.07,0.06,0.06,0.07,0.07,0.08,0.08,0.10,0.08,0.10,0.10,0.10,0.10,0.08,0.07,0.07,0.06,0.05,0.02,0.00,-0.02,-0.05,-0.05,-0.06,-0.06,-0.06,-0.05,-0.02,-0.02,0.00,0.01,0.02,0.02,0.04,0.04,0.04,0.04,0.04,0.04,0.04,0.05,0.06,0.06,0.05,0.05,0.05,0.05,0.05,0.06,0.06,0.05,0.05,0.05,0.05,0.05,0.05,0.05,0.05,0.05,0.05,0.06,0.05,0.05,0.05,0.05,0.05,0.04,0.05,0.04,0.04,0.05,0.05,0.04,0.04,0.04,0.04,0.04,0.04,0.04,0.04,0.04,0.05,0.05,0.05,0.05,0.06,0.06,0.05,0.05,0.05,0.05,0.04,0.04,0.04,0.05,0.05,0.06,0.05,0.05,0.05,0.05,0.05,0.06,0.05,0.10,0.26,0.41,0.40,0.22,0.10,-0.12,-0.30,-0.25,-0.13,-0.04,0.01,0.02,0.02,0.02,0.04,0.04,0.05,0.04,0.05,0.05,0.05,0.05,0.05,0.05,0.06,0.06,0.05,0.05,0.06,0.07,0.07,0.07,0.06,0.06,0.06,0.07,0.07,1541131416,0.08,0.10,0.10,0.10,0.10,0.10,0.08,0.07,0.06,0.05,0.04,0.00,-0.02,-0.05,-0.07,-0.06,-0.06,-0.06,-0.05,-0.02,0.00,0.00,0.01,0.02,0.04,0.04,0.04,0.04,0.05,0.05,0.04,0.04,0.04,0.04,0.04,0.04,0.04,0.05,0.05,0.06,0.06,0.06,0.06,0.05,0.05,0.06,0.10,0.11,0.08,0.07,0.07,0.06,0.04,0.04,0.04,0.02,0.05,0.07,0.08,0.07,0.07,0.07,0.08,0.08,0.06,0.04,0.02,0.04,0.04,0.04,0.02,0.04,0.04,0.04,0.04,0.02,0.04,0.04,0.04,0.04,0.05,0.06,0.07,0.06,0.07,0.06,0.05,0.05,0.04,0.05,0.05,0.05,0.05,0.05,0.04,0.04,0.02,0.02,0.04,0.04,0.13,0.31,0.44,0.37,0.19,0.06,-0.19,-0.32,-0.24,-0.12,-0.02,0.01,0.01,0.02,0.02,0.04,0.02,0.04,0.04,0.04,0.04,0.05,0.05,0.06,0.06,0.06,0.06,0.07,0.07,0.07,0.06,0.06,0.06,0.07,0.07,0.07,0.07,0.07,0.07,0.07,0.07,0.08,0.08,0.10,0.08,0.07,0.07,0.05,0.04,0.01,-0.01,-0.02,-0.05,-0.06,-0.06,-0.06,-0.05,-0.04,-0.02,-0.01,0.00,0.02,0.04,0.02,0.04,0.04,0.04,0.04,0.05,0.05,0.05,0.05,0.05,0.05,0.05,0.04,0.04,0.05,0.05,0.06,1541131417,0.06,0.06,0.05,0.06,0.06,0.06,0.05,0.05,0.05,0.05,0.05,0.04,0.04,0.04,0.04,0.02,0.04,0.05,0.07,0.07,0.06,0.05,0.05,0.04,0.04,0.04,0.05,0.04,0.02,0.04,0.05,0.07,0.08,0.07,0.05,0.05,0.04,0.04,0.04,0.05,0.06,0.06,0.05,0.05,0.05,0.04,0.04,0.04,0.04,0.04,0.04,0.04,0.02,0.04,0.05,0.06,0.06,0.05,0.02,0.08,0.26,0.43,0.43,0.29,0.14,-0.12,-0.34,-0.30,-0.17,-0.08,-0.01,0.02,0.02,0.02,0.04,0.04,0.05,0.05,0.05,0.05,0.05,0.05,0.05,0.05,0.05,0.06,0.06,0.06,0.05,0.06,0.07,0.07,0.07,0.07,0.07,0.07,0.06,0.07,0.11,0.11,0.10,0.10,0.08,0.07,0.07,0.05,0.05,0.04,0.01,0.00,-0.04,-0.06,-0.07,-0.07,-0.05,-0.02,-0.01,0.00,0.00,0.00,0.01,0.02,0.02,0.04,0.05,0.05,0.04,0.05,0.05,0.05,0.06,0.05,0.05,0.05,0.05,0.05,0.06,0.06,0.05,0.05,0.05,0.06,0.05,0.06,0.06,0.06,0.05,0.05,0.05,0.05,0.05,0.04,0.05,0.05,0.05,0.05,0.06,0.05,0.04,0.04,0.05,0.04,0.05,0.05,0.05,0.05,0.05,0.05,0.06,0.06,0.06,0.05,0.05,0.04,0.04,0.02,0.02,0.04,0.05,0.05,1541131418,0.05,0.05,0.05,0.05,0.05,0.06,0.07,0.06,0.10,0.22,0.34,0.24,0.07,-0.01,-0.10,-0.16,-0.11,-0.05,0.00,0.04,0.05,0.04,0.05,0.05,0.04,0.05,0.05,0.05,0.05,0.05,0.06,0.06,0.05,0.05,0.05,0.05,0.06,0.06,0.06,0.06,0.06,0.07,0.07,0.07,0.08,0.08,0.08,0.08,0.08,0.08,0.08,0.07,0.07,0.06,0.05,0.04,0.02,0.00,-0.01,-0.02,-0.04,-0.05,-0.04,-0.02,-0.01,0.00,0.00,0.02,0.02,0.02,0.02,0.04,0.02,0.04,0.04,0.05,0.05,0.05,0.05,0.05,0.05,0.05,0.05,0.05,0.05,0.06,0.05,0.05,0.05,0.04,0.04,0.05,0.05,0.06,0.05,0.05,0.05,0.05,0.05,0.05,0.05,0.05,0.05,0.04,0.05,0.05,0.04,0.04,0.04,0.04,0.04,0.05,0.06,0.06,0.05,0.06,0.06,0.06,0.06,0.05,0.04,0.04,0.04,0.04,0.05,0.05,0.05,0.05,0.05,0.05,0.05,0.05,0.05,0.06,0.08,0.17,0.30,0.31,0.13,0.00,-0.06,-0.14,-0.14,-0.07,-0.01,0.01,0.04,0.04,0.04,0.05,0.05,0.04,0.05,0.05,0.05,0.05,0.05,0.05,0.05,0.06,0.05,0.05,0.05,0.05,0.06,0.06,0.07,0.07,0.06,0.07,0.07,0.07,0.08,0.07,0.07,0.07,0.10,0.08,0.07,0.06,1541131419,0.05,0.04,0.04,0.01,0.00,-0.01,-0.02,-0.04,-0.04,-0.02,-0.02,-0.01,0.00,0.01,0.02,0.02,0.02,0.04,0.04,0.04,0.04,0.04,0.04,0.06,0.06,0.06,0.05,0.05,0.05,0.05,0.05,0.05,0.05,0.05,0.05,0.05,0.05,0.05,0.04,0.04,0.06,0.06,0.05,0.05,0.05,0.05,0.05,0.05,0.05,0.05,0.04,0.04,0.05,0.05,0.05,0.05,0.05,0.04,0.04,0.04,0.04,0.05,0.06,0.06,0.05,0.05,0.06,0.06,0.05,0.05,0.04,0.02,0.02,0.04,0.05,0.05,0.05,0.05,0.04,0.04,0.05,0.05,0.06,0.07,0.11,0.23,0.35,0.32,0.10,-0.01,-0.10,-0.22,-0.17,-0.08,0.00,0.05,0.04,0.04,0.02,0.04,0.05,0.05,0.04,0.05,0.05,0.06,0.05,0.05,0.05,0.06,0.06,0.05,0.05,0.06,0.05,0.06,0.06,0.06,0.06,0.07,0.07,0.07,0.08,0.10,0.08,0.10,0.10,0.10,0.07,0.06,0.05,0.05,0.04,0.01,-0.01,-0.02,-0.05,-0.06,-0.05,-0.04,-0.02,-0.01,0.00,0.01,0.01,0.01,0.02,0.02,0.04,0.05,0.05,0.05,0.05,0.05,0.05,0.04,0.05,0.05,0.05,0.05,0.05,0.05,0.06,0.05,0.05,0.05,0.05,0.05,0.05,0.05,0.04,0.04,0.05,0.06,0.05,0.05,0.05,0.05,0.05,0.05,1541131420,0.04,0.05,0.05,0.05,0.05,0.05,0.05,0.05,0.06,0.05,0.04,0.05,0.05,0.05,0.05,0.05,0.05,0.05,0.04,0.04,0.05,0.05,0.05,0.05,0.05,0.05,0.05,0.06,0.06,0.06,0.05,0.06,0.05,0.04,0.02,0.02,0.02,0.04,0.05,0.05,0.05,0.05,0.05,0.05,0.05,0.05,0.10,0.25,0.40,0.37,0.17,0.04,-0.12,-0.26,-0.24,-0.12,-0.02,0.02,0.02,0.02,0.04,0.05,0.05,0.04,0.04,0.05,0.05,0.05,0.05,0.06,0.05,0.05,0.06,0.06,0.06,0.06,0.06,0.06,0.06,0.07,0.07,0.07,0.07,0.08,0.10,0.10,0.10,0.10,0.10,0.10,0.08,0.07,0.05,0.05,0.05,0.02,0.00,-0.01,-0.04,-0.05,-0.06,-0.05,-0.05,-0.04,-0.02,-0.01,0.00,0.01,0.02,0.02,0.01,0.04,0.06,0.06,0.06,0.05,0.05,0.05,0.04,0.04,0.05,0.05,0.05,0.05,0.05,0.05,0.05,0.05,0.05,0.05,0.04,0.04,0.05,0.06,0.06,0.06,0.06,0.05,0.04,0.04,0.05,0.05,0.05,0.04,0.05,0.05,0.05,0.04,0.05,0.05,0.05,0.05,0.05,0.05,0.05,0.05,0.05,0.05,0.05,0.05,0.05,0.05,0.05,0.05,0.05,0.05,0.05,0.05,0.05,0.05,0.05,0.06,0.07,0.06,0.05,0.05,0.05,0.04,0.02,0.04,1541131421,0.05,0.05,0.05,0.05,0.05,0.04,0.04,0.04,0.06,0.06,0.07,0.19,0.37,0.44,0.29,0.13,-0.04,-0.28,-0.30,-0.18,-0.07,-0.01,0.02,0.02,0.04,0.04,0.04,0.04,0.04,0.05,0.05,0.05,0.06,0.06,0.06,0.06,0.05,0.05,0.05,0.05,0.06,0.07,0.07,0.07,0.07,0.07,0.07,0.07,0.08,0.10,0.10,0.10,0.10,0.08,0.07,0.07,0.06,0.06,0.04,0.01,0.00,-0.02,-0.04,-0.05,-0.06,-0.06,-0.05,-0.04,-0.02,-0.01,0.00,0.01,0.02,0.04,0.04,0.04,0.04,0.04,0.05,0.05,0.05,0.05,0.05,0.05,0.05,0.05,0.05,0.05,0.05,0.06,0.05,0.05,0.05,0.05,0.05,0.05,0.05,0.05,0.05,0.05,0.05,0.05,0.05,0.05,0.05,0.05,0.05,0.05,0.05,0.05,0.05,0.05,0.05,0.05,0.05,0.05,0.05,0.05,0.05,0.05,0.05,0.05,0.05,0.05,0.05,0.06,0.06,0.06,0.06,0.06,0.05,0.05,0.05,0.04,0.04,0.04,0.05,0.05,0.05,0.05,0.05,0.05,0.05,0.06,0.06,0.06,0.11,0.25,0.35,0.22,0.06,-0.01,-0.13,-0.18,-0.11,-0.04,0.01,0.04,0.04,0.04,0.04,0.05,0.05,0.05,0.05,0.05,0.05,0.05,0.05,0.05,0.05,0.05,0.06,0.05,0.06,0.06,0.06,0.06,0.06,0.06,1541131421,0.07,0.07,0.08,0.08,0.08,0.08,0.08,0.08,0.08,0.07,0.07,0.06,0.05,0.04,0.02,0.01,-0.01,-0.04,-0.04,-0.04,-0.04,-0.02,-0.02,-0.01,0.00,0.01,0.01,0.02,0.02,0.04,0.04,0.04,0.04,0.05,0.05,0.05,0.05,0.05,0.05,0.05,0.05,0.05,0.05,0.06,0.05,0.05,0.05,0.05,0.05,0.05,0.05,0.05,0.05,0.05,0.05,0.05,0.05,0.05,0.04,0.04,0.05,0.05,0.05,0.05,0.05,0.05,0.05,0.05,0.05,0.05,0.05,0.04,0.05,0.04,0.05,0.05,0.05,0.06,0.06,0.05,0.05,0.04,0.04,0.04,0.04,0.05,0.04,0.04,0.05,0.05,0.05,0.05,0.05,0.07,0.07,0.06,0.12,0.24,0.29,0.13,0.02,0.00,-0.10,-0.12,-0.07,-0.01,0.01,0.02,0.05,0.04,0.05,0.05,0.04,0.04,0.05,0.05,0.05,0.05,0.05,0.05,0.05,0.05,0.05,0.05,0.05,0.05,0.06,0.06,0.06,0.06,0.06,0.06,0.06,0.07,0.07,0.07,0.07,0.07,0.07,0.07,0.06,0.06,0.05,0.04,0.02,0.00,0.00,-0.02,-0.02,-0.02,-0.02,-0.01,0.00,0.01,0.01,0.02,0.02,0.04,0.04,0.04,0.04,0.05,0.02,0.02,0.05,0.06,0.05,0.05,0.05,0.05,0.05,0.05,0.05,0.05,0.06,0.06,0.06,0.05,0.05,0.05,1541131422,0.05,0.05,0.05,0.04,0.04,0.05,0.05,0.05,0.05,0.05,0.05,0.04,0.05,0.06,0.05,0.05,0.05,0.04,0.05,0.05,0.06,0.07,0.06,0.05,0.05,0.06,0.05,0.04,0.05,0.04,0.04,0.04,0.04,0.05,0.04,0.04,0.04,0.05,0.06,0.06,0.07,0.13,0.24,0.24,0.06,0.00,-0.02,-0.08,-0.07,-0.02,0.01,0.04,0.04,0.05,0.05,0.05,0.05,0.05,0.05,0.04,0.02,0.05,0.06,0.06,0.05,0.05,0.05,0.05,0.06,0.06,0.06,0.05,0.06,0.06,0.06,0.06,0.06,0.06,0.07,0.07,0.07,0.08,0.08,0.08,0.07,0.07,0.06,0.05,0.02,0.01,-0.01,-0.02,-0.02,-0.02,-0.01,0.00,0.00,0.00,0.01,0.02,0.02,0.02,0.02,0.04,0.05,0.04,0.04,0.04,0.05,0.05,0.05,0.05,0.05,0.05,0.05,0.05,0.05,0.06,0.06,0.06,0.05,0.05,0.05,0.05,0.05,0.05,0.05,0.05,0.05,0.05,0.05,0.04,0.04,0.04,0.04,0.05,0.05,0.05,0.04,0.04,0.04,0.05,0.05,0.05,0.05,0.05,0.05,0.05,0.05,0.06,0.05,0.05,0.04,0.04,0.05,0.05,0.05,0.05,0.04,0.04,0.05,0.06,0.06,0.07,0.07,0.10,0.18,0.23,0.13,-0.05,-0.04,-0.02,-0.06,-0.04,0.01,0.05,0.05,0.05,0.05,0.04,1541131437,0.04,0.05,0.05,0.05,0.05,0.05,0.05,0.05,0.05,0.06,0.06,0.05,0.05,0.05,0.05,0.06,0.06,0.06,0.06,0.06,0.06,0.06,0.07,0.07,0.07,0.07,0.07,0.07,0.07,0.06,0.06,0.05,0.05,0.04,0.02,0.01,-0.01,-0.02,-0.02,-0.02,-0.01,0.00,0.01,0.01,0.01,0.02,0.02,0.04,0.04,0.04,0.04,0.05,0.05,0.05,0.04,0.05,0.05,0.04,0.05,0.04,0.05,0.05,0.05,0.05,0.05,0.05,0.05,0.05,0.05,0.05,0.05,0.05,0.04,0.04,0.04,0.05,0.05,0.05,0.05,0.04,0.04,0.04,0.04,0.05,0.05,0.05,0.05,0.05,0.04,0.04,0.04,0.05,0.05,0.06,0.06,0.06,0.06,0.05,0.05,0.05,0.04,0.04,0.04,0.04,0.04,0.05,0.05,0.05,0.05,0.05,0.05,0.06,0.07,0.07,0.10,0.17,0.22,0.14,-0.04,-0.05,-0.02,-0.06,-0.04,0.00,0.04,0.05,0.05,0.05,0.05,0.05,0.05,0.05,0.05,0.05,0.05,0.05,0.05,0.05,0.05,0.05,0.05,0.05,0.06,0.06,0.06,0.06,0.06,0.05,0.06,0.07,0.06,0.06,0.06,0.06,0.07,0.07,0.07,0.07,0.06,0.06,0.05,0.05,0.04,0.02,0.01,0.00,-0.01,-0.02,-0.01,-0.01,-0.01,0.00,0.00,0.01,0.02,0.02,0.04,0.04,0.04,0.04,1541131439,0.04,0.05,0.05,0.05,0.05,0.05,0.05,0.05,0.05,0.05,0.05,0.05,0.05,0.04,0.04,0.05,0.05,0.05,0.05,0.05,0.05,0.05,0.05,0.05,0.05,0.05,0.05,0.05,0.05,0.05,0.05,0.05,0.05,0.05,0.05,0.05,0.05,0.05,0.05,0.05,0.05,0.05,0.05,0.05,0.05,0.05,0.05,0.05,0.05,0.05,0.05,0.05,0.05,0.05,0.06,0.06,0.05,0.05,0.04,0.04,0.04,0.04,0.04,0.05,0.05,0.05,0.05,0.05,0.05,0.05,0.07,0.07,0.10,0.19,0.29,0.20,0.02,-0.04,-0.08,-0.13,-0.08,-0.02,0.02,0.05,0.05,0.04,0.05,0.05,0.05,0.05,0.05,0.05,0.05,0.05,0.05,0.05,0.06,0.06,0.05,0.05,0.06,0.06,0.06,0.06,0.06,0.06,0.06,0.06,0.07,0.07,0.07,0.08,0.08,0.08,0.07,0.07,0.06,0.06,0.06,0.05,0.04,0.02,0.01,-0.01,-0.02,-0.02,-0.02,-0.02,-0.02,-0.01,0.00,0.01,0.01,0.02,0.02,0.02,0.04,0.04,0.05,0.05,0.05,0.05,0.05,0.05,0.05,0.05,0.05,0.05,0.05,0.05,0.05,0.06,0.06,0.05,0.05,0.05,0.05,0.05,0.04,0.04,0.05,0.05,0.05,0.05,0.05,0.05,0.05,0.05,0.05,0.05,0.05,0.05,0.05,0.05,0.05,0.05,0.04,0.04,0.04,0.04,1541131439,0.05,0.04,0.04,0.05,0.05,0.04,0.05,0.05,0.05,0.05,0.05,0.05,0.05,0.06,0.06,0.06,0.05,0.05,0.04,0.04,0.04,0.05,0.05,0.05,0.05,0.05,0.05,0.05,0.05,0.07,0.06,0.07,0.19,0.31,0.30,0.11,0.00,-0.10,-0.19,-0.14,-0.06,0.01,0.04,0.05,0.05,0.05,0.05,0.05,0.05,0.05,0.05,0.05,0.05,0.05,0.05,0.05,0.06,0.06,0.06,0.05,0.05,0.05,0.06,0.06,0.06,0.06,0.07,0.07,0.07,0.07,0.08,0.08,0.08,0.08,0.07,0.07,0.06,0.06,0.05,0.04,0.01,0.00,-0.02,-0.04,-0.05,-0.05,-0.05,-0.04,-0.02,-0.01,0.00,0.01,0.01,0.02,0.04,0.04,0.04,0.05,0.05,0.05,0.05,0.05,0.05,0.05,0.05,0.05,0.05,0.05,0.05,0.05,0.06,0.06,0.05,0.05,0.05,0.05,0.05,0.05,0.05,0.05,0.05,0.05,0.05,0.05,0.05,0.05,0.05,0.05,0.05,0.05,0.05,0.05,0.04,0.05,0.05,0.05,0.05,0.05,0.05,0.05,0.05,0.05,0.05,0.05,0.05,0.05,0.06,0.06,0.06,0.06,0.05,0.05,0.04,0.04,0.04,0.04,0.04,0.05,0.05,0.05,0.05,0.05,0.05,0.05,0.06,0.05,0.07,0.19,0.35,0.35,0.19,0.06,-0.12,-0.24,-0.18,-0.08,-0.02,0.01,0.04,0.04,1541131440,0.04,0.04,0.04,0.05,0.05,0.05,0.06,0.05,0.05,0.05,0.05,0.05,0.05,0.05,0.06,0.06,0.06,0.06,0.06,0.06,0.06,0.07,0.07,0.08,0.08,0.08,0.08,0.08,0.08,0.08,0.07,0.07,0.05,0.05,0.04,0.02,0.00,-0.02,-0.04,-0.04,-0.04,-0.04,-0.04,-0.02,-0.01,0.00,0.00,0.01,0.02,0.02,0.02,0.04,0.04,0.04,0.05,0.05,0.05,0.05,0.05,0.05,0.05,0.05,0.05,0.05,0.05,0.05,0.05,0.05,0.05,0.05,0.05,0.05,0.05,0.05,0.05,0.05,0.05,0.05,0.05,0.05,0.05,0.05,0.05,0.05,0.05,0.05,0.05,0.04,0.05,0.05,0.05,0.05,0.05,0.05,0.05,0.05,0.05,0.06,0.06,0.06,0.05,0.05,0.05,0.05,0.04,0.04,0.05,0.05,0.05,0.05,0.05,0.05,0.05,0.05,0.06,0.05,0.06,0.17,0.32,0.38,0.22,0.08,-0.07,-0.24,-0.22,-0.12,-0.04,0.01,0.02,0.04,0.04,0.04,0.04,0.05,0.05,0.05,0.05,0.05,0.05,0.05,0.05,0.06,0.05,0.06,0.06,0.06,0.06,0.07,0.07,0.07,0.07,0.07,0.08,0.08,0.08,0.08,0.08,0.10,0.08,0.08,0.07,0.06,0.06,0.05,0.04,0.01,-0.01,-0.02,-0.04,-0.05,-0.05,-0.04,-0.02,-0.02,-0.01,0.00,0.01,0.02,0.02,0.02,1541131440,0.04,0.04,0.05,0.05,0.05,0.05,0.05,0.05,0.05,0.05,0.05,0.05,0.05,0.05,0.05,0.05,0.05,0.05,0.05,0.05,0.05,0.05,0.05,0.05,0.05,0.05,0.05,0.05,0.05,0.04,0.04,0.05,0.05,0.05,0.05,0.05,0.05,0.05,0.04,0.05,0.05,0.05,0.05,0.06,0.06,0.06,0.06,0.05,0.05,0.05,0.04,0.04,0.04,0.04,0.05,0.05,0.05,0.05,0.05,0.05,0.05,0.05,0.06,0.06,0.13,0.29,0.37,0.23,0.07,-0.04,-0.18,-0.22,-0.12,-0.04,0.01,0.04,0.05,0.04,0.04,0.04,0.05,0.05,0.05,0.05,0.05,0.05,0.05,0.05,0.05,0.05,0.06,0.06,0.06,0.06,0.07,0.06,0.06,0.07,0.07,0.07,0.08,0.08,0.10,0.10,0.10,0.08,0.08,0.07,0.07,0.06,0.05,0.04,0.02,0.00,-0.02,-0.04,-0.05,-0.05,-0.04,-0.04,-0.02,-0.01,0.00,0.01,0.02,0.02,0.04,0.04,0.04,0.04,0.05,0.05,0.05,0.05,0.05,0.05,0.05,0.05,0.05,0.05,0.05,0.05,0.05,0.05,0.05,0.05,0.05,0.05,0.05,0.05,0.05,0.05,0.05,0.05,0.05,0.05,0.05,0.05,0.05,0.05,0.05,0.05,0.05,0.05,0.05,0.05,0.05,0.05,0.05,0.04,0.05,0.05,0.05,0.05,0.06,0.06,0.06,0.05,0.05,0.05,1541131440,0.05,0.04,0.04,0.04,0.04,0.05,0.05,0.05,0.05,0.04,0.05,0.06,0.06,0.05,0.12,0.28,0.41,0.34,0.14,0.01,-0.17,-0.28,-0.19,-0.08,-0.01,0.02,0.02,0.02,0.04,0.05,0.05,0.05,0.05,0.05,0.05,0.06,0.05,0.05,0.05,0.06,0.06,0.06,0.06,0.07,0.07,0.07,0.07,0.07,0.07,0.07,0.07,0.08,0.08,0.08,0.10,0.10,0.08,0.08,0.07,0.06,0.05,0.04,0.02,0.00,-0.02,-0.04,-0.05,-0.05,-0.05,-0.04,-0.02,-0.01,0.00,0.00,0.01,0.02,0.04,0.04,0.04,0.04,0.04,0.05,0.05,0.05,0.05,0.05,0.05,0.05,0.05,0.05,0.05,0.05,0.05,0.05,0.05,0.05,0.05,0.05,0.05,0.05,0.05,0.05,0.05,0.05,0.05,0.05,0.05,0.05,0.05,0.05,0.05,0.05,0.05,0.05,0.05,0.05,0.04,0.05,0.05,0.05,0.06,0.06,0.06,0.06,0.05,0.05,0.05,0.05,0.04,0.04,0.04,0.05,0.05,0.05,0.05,0.05,0.05,0.05,0.06,0.06,0.07,0.13,0.28,0.35,0.20,0.05,-0.02,-0.16,-0.19,-0.11,-0.04,0.02,0.04,0.04,0.04,0.04,0.05,0.05,0.05,0.05,0.05,0.05,0.05,0.05,0.06,0.06,0.06,0.06,0.06,0.06,0.06,0.06,0.07,0.06,0.07,0.07,0.07,0.08,0.08,0.10,1541131440,0.10,0.10,0.10,0.08,0.07,0.07,0.06,0.05,0.04,0.01,0.00,-0.02,-0.04,-0.05,-0.04,-0.04,-0.02,-0.02,-0.01,0.00,0.01,0.02,0.02,0.04,0.04,0.04,0.05,0.05,0.05,0.05,0.05,0.05,0.05,0.05,0.05,0.05,0.05,0.05,0.06,0.05,0.05,0.05,0.05,0.06,0.06,0.05,0.05,0.05,0.05,0.05,0.05,0.05,0.05,0.05,0.05,0.05,0.05,0.05,0.05,0.05,0.05,0.05,0.05,0.05,0.05,0.05,0.05,0.05,0.05,0.05,0.05,0.05,0.05,0.05,0.05,0.05,0.06,0.06,0.06,0.06,0.05,0.05,0.05,0.04,0.04,0.04,0.04,0.05,0.05,0.05,0.05,0.05,0.05,0.05,0.06,0.06,0.11,0.26,0.40,0.35,0.13,0.02,-0.14,-0.26,-0.19,-0.08,-0.01,0.02,0.02,0.02,0.04,0.04,0.05,0.05,0.05,0.05,0.05,0.05,0.06,0.06,0.06,0.06,0.06,0.06,0.06,0.06,0.06,0.06,0.06,0.07,0.07,0.08,0.08,0.08,0.08,0.08,0.10,0.10,0.10,0.08,0.08,0.07,0.06,0.05,0.02,0.00,-0.02,-0.04,-0.05,-0.06,-0.05,-0.05,-0.04,-0.02,-0.01,0.00,0.01,0.02,0.02,0.02,0.04,0.05,0.05,0.05,0.05,0.05,0.05,0.05,0.05,0.05,0.05,0.05,0.05,0.05,0.05,0.05,0.05,0.05,0.05,0.05,1541131441,0.05,0.05,0.05,0.05,0.05,0.05,0.05,0.05,0.05,0.05,0.05,0.05,0.05,0.05,0.05,0.05,0.05,0.05,0.04,0.05,0.05,0.05,0.05,0.04,0.05,0.05,0.05,0.05,0.05,0.05,0.05,0.05,0.05,0.05,0.04,0.05,0.05,0.05,0.05,0.05,0.06,0.06,0.05,0.05,0.05,0.04,0.04,0.04,0.04,0.04,0.05,0.05,0.05,0.05,0.05,0.05,0.05,0.05,0.05,0.14,0.31,0.43,0.34,0.17,0.02,-0.22,-0.32,-0.22,-0.10,-0.02,0.01,0.02,0.02,0.04,0.04,0.04,0.05,0.05,0.05,0.06,0.06,0.05,0.05,0.06,0.06,0.06,0.06,0.06,0.06,0.06,0.06,0.07,0.07,0.07,0.08,0.08,0.10,0.10,0.10,0.10,0.10,0.10,0.08,0.08,0.07,0.06,0.05,0.02,0.00,-0.02,-0.05,-0.06,-0.06,-0.06,-0.06,-0.05,-0.04,-0.02,0.00,0.01,0.02,0.02,0.04,0.04,0.05,0.04,0.05,0.05,0.05,0.05,0.05,0.05,0.05,0.05,0.05,0.05,0.05,0.05,0.05,0.05,0.05,0.05,0.05,0.05,0.05,0.05,0.05,0.05,0.05,0.05,0.05,0.05,0.05,0.05,0.05,0.05,0.05,0.05,0.05,0.05,0.05,0.05,0.05,0.05,0.05,0.05,0.05,0.05,0.05,0.05,0.05,0.05,0.05,0.05,0.05,0.05,0.05,0.05,0.05,0.05,1541131441,0.05,0.05,0.05,0.05,0.05,0.05,0.04,0.05,0.05,0.05,0.05,0.05,0.06,0.06,0.06,0.06,0.05,0.05,0.04,0.04,0.04,0.04,0.05,0.05,0.05,0.05,0.05,0.05,0.06,0.05,0.06,0.18,0.34,0.41,0.26,0.12,-0.05,-0.24,-0.24,-0.14,-0.06,0.00,0.02,0.04,0.04,0.04,0.04,0.04,0.05,0.05,0.05,0.05,0.05,0.05,0.06,0.06,0.05,0.06,0.06,0.06,0.06,0.06,0.06,0.06,0.06,0.07,0.07,0.08,0.08,0.10,0.10,0.10,0.10,0.08,0.08,0.07,0.06,0.05,0.05,0.02,0.00,-0.01,-0.04,-0.05,-0.05,-0.05,-0.05,-0.04,-0.02,-0.01,0.00,0.01,0.02,0.02,0.04,0.05,0.05,0.05,0.05,0.05,0.05,0.05,0.06,0.06,0.06,0.06,0.06,0.06,0.06,0.05,0.05,0.05,0.06,0.05,0.05,0.05,0.05,0.05,0.05,0.05,0.05,0.04,0.04,0.04,0.02,0.04,0.04,0.04,0.04,0.04,0.05,0.05,0.05,0.05,0.05,0.05,0.05,0.05,0.05,0.06,0.06,0.05,0.05,0.05,0.06,0.05,0.05,0.05,0.05,0.05,0.05,0.05,0.05,0.06,0.06,0.06,0.05,0.05,0.05,0.05,0.04,0.02,0.02,0.04,0.04,0.02,0.04,0.02,0.02,0.02,0.04,0.05,0.05,0.06,0.17,0.31,0.37,0.20,0.05,-0.05,1541131441,-0.20,-0.24,-0.12,-0.04,0.01,0.02,0.02,0.02,0.02,0.02,0.04,0.04,0.05,0.05,0.05,0.06,0.06,0.06,0.07,0.07,0.07,0.07,0.07,0.06,0.06,0.06,0.06,0.06,0.06,0.07,0.07,0.07,0.07,0.10,0.10,0.10,0.10,0.08,0.08,0.07,0.07,0.05,0.02,0.00,-0.02,-0.04,-0.05,-0.05,-0.05,-0.04,-0.01,0.00,0.01,0.01,0.01,0.02,0.04,0.05,0.05,0.05,0.05,0.05,0.05,0.05,0.05,0.05,0.04,0.04,0.04,0.04,0.04,0.05,0.05,0.06,0.07,0.07,0.07,0.08,0.07,0.08,0.07,0.07,0.07,0.06,0.05,0.06,0.05,0.05,0.06,0.07,0.07,0.07,0.07,0.05,0.04,0.02,0.02,0.02,0.04,0.05,0.04,0.05,0.05,0.05,0.05,0.04,0.04,0.04,0.05,0.05,0.05,0.05,0.05,0.05,0.05,0.05,0.05,0.05,0.05,0.05,0.05,0.05,0.05,0.05,0.05,0.06,0.06,0.06,0.06,0.06,0.06,0.06,0.06,0.05,0.05,0.04,0.05,0.04,0.04,0.05,0.05,0.05,0.04,0.04,0.05,0.05,0.05,0.10,0.26,0.38,0.34,0.17,0.04,-0.16,-0.28,-0.20,-0.10,-0.02,0.01,0.01,0.02,0.02,0.04,0.04,0.05,0.05,0.05,0.05,0.05,0.05,0.06,0.06,0.06,0.06,0.06,0.05,0.06,0.06,0.05,0.06,1541131442,0.06,0.07,0.07,0.07,0.08,0.10,0.10,0.10,0.10,0.10,0.08,0.07,0.06,0.05,0.04,0.02,0.02,0.00,-0.01,-0.04,-0.04,-0.05,-0.05,-0.04,-0.02,-0.02,0.00,0.02,0.04,0.05,0.05,0.04,0.04,0.04,0.04,0.04,0.04,0.04,0.05,0.05,0.04,0.04,0.04,0.04,0.04,0.04,0.05,0.06,0.06,0.07,0.07,0.07,0.06,0.05,0.05,0.05,0.04,0.04,0.04,0.02,0.02,0.02,0.02,0.02,0.04,0.05,0.05,0.05,0.05,0.06,0.06,0.06,0.06,0.07,0.07,0.06,0.06,0.05,0.04,0.04,0.04,0.05,0.07,0.07,0.07,0.07,0.06,0.05,0.05,0.05,0.04,0.04,0.05,0.04,0.04,0.04,0.05,0.05,0.05,0.04,0.04,0.04,0.02,0.02,0.02,0.02,0.02,0.02,0.02,0.04,0.04,0.04,0.04,0.04,0.05,0.04,0.08,0.22,0.34,0.37,0.17,0.02,-0.08,-0.24,-0.24,-0.13,-0.05,0.00,0.02,0.02,0.02,0.02,0.04,0.04,0.06,0.06,0.06,0.05,0.05,0.05,0.05,0.06,0.06,0.06,0.07,0.07,0.07,0.07,0.06,0.06,0.06,0.07,0.08,0.08,0.10,0.10,0.11,0.11,0.11,0.10,0.08,0.07,0.06,0.06,0.06,0.05,0.04,0.01,0.00,-0.02,-0.05,-0.04,-0.04,-0.02,-0.01,0.00,0.00,0.00,0.00,0.02,1541131442,0.05,0.04,0.02,0.02,0.02,0.02,0.04,0.05,0.05,0.05,0.05,0.05,0.02,0.02,0.02,0.02,0.02,0.02,0.02,0.02,0.04,0.04,0.05,0.04,0.04,0.04,0.04,0.04,0.04,0.06,0.06,0.07,0.08,0.08,0.08,0.07,0.06,0.06,0.07,0.07,0.07,0.07,0.06,0.06,0.06,0.05,0.05,0.05,0.05,0.05,0.04,0.04,0.04,0.05,0.05,0.05,0.05,0.05,0.05,0.06,0.06,0.06,0.05,0.05,0.04,0.04,0.05,0.04,0.02,0.04,0.04,0.04,0.04,0.04,0.05,0.05,0.04,0.04,0.02,0.04,0.04,0.05,0.06,0.06,0.06,0.05,0.02,0.04,0.04,0.05,0.13,0.28,0.42,0.35,0.13,0.02,-0.16,-0.29,-0.24,-0.13,-0.05,0.00,0.01,0.01,0.02,0.04,0.04,0.06,0.07,0.07,0.06,0.06,0.05,0.06,0.07,0.08,0.11,0.11,0.08,0.07,0.08,0.10,0.11,0.11,0.11,0.08,0.07,0.07,0.07,0.07,0.07,0.07,0.07,0.07,0.06,0.06,0.04,0.04,0.01,0.00,-0.02,-0.05,-0.07,-0.07,-0.07,-0.06,-0.05,-0.04,-0.02,-0.01,0.01,0.02,0.04,0.05,0.06,0.06,0.06,0.06,0.06,0.06,0.06,0.06,0.06,0.06,0.06,0.06,0.05,0.05,0.05,0.06,0.06,0.06,0.06,0.05,0.06,0.05,0.04,0.05,0.04,0.04,1541131442,0.04,0.04,0.04,0.04,0.02,0.01,0.01,0.02,0.02,0.02,0.01,0.01,0.01,0.02,0.04,0.05,0.05,0.05,0.05,0.04,0.04,0.04,0.04,0.05,0.06,0.07,0.07,0.07,0.08,0.08,0.08,0.07,0.07,0.05,0.05,0.04,0.05,0.04,0.04,0.04,0.04,0.04,0.04,0.02,0.02,0.04,0.04,0.02,0.01,0.02,0.06,0.06,0.06,0.05,0.04,0.04,0.04,0.04,0.02,0.02,0.02,0.12,0.30,0.43,0.41,0.25,0.11,-0.14,-0.30,-0.24,-0.12,-0.02,0.02,0.05,0.05,0.06,0.06,0.06,0.06,0.07,0.06,0.06,0.07,0.07,0.07,0.07,0.07,0.07,0.06,0.05,0.06,0.06,0.06,0.05,0.06,0.07,0.10,0.10,0.08,0.10,0.11,0.11,0.11,0.11,0.10,0.10,0.07,0.07,0.05,0.04,0.01,-0.01,-0.02,-0.05,-0.07,-0.07,-0.07,-0.06,-0.05,-0.04,-0.02,-0.01,0.00,0.01,0.02,0.02,0.02,0.02,0.02,0.04,0.04,0.04,0.05,0.05,0.05,0.05,0.05,0.05,0.05,0.05,0.05,0.05,0.05,0.05,0.05,0.05,0.05,0.05,0.05,0.05,0.05,0.05,0.05,0.06,0.06,0.06,0.06,0.05,0.05,0.05,0.05,0.05,0.05,0.05,0.05,0.05,0.05,0.05,0.05,0.05,0.05,0.05,0.05,0.05,0.05,0.05,0.05,0.04,0.04,0.04,1541131442,0.05,0.05,0.05,0.06,0.07,0.06,0.06,0.05,0.05,0.05,0.05,0.04,0.04,0.04,0.05,0.04,0.04,0.04,0.05,0.05,0.05,0.05,0.02,0.04,0.14,0.35,0.47,0.36,0.22,0.01,-0.28,-0.32,-0.20,-0.10,-0.04,0.00,0.02,0.02,0.04,0.04,0.04,0.05,0.05,0.05,0.05,0.06,0.05,0.06,0.05,0.06,0.06,0.06,0.06,0.06,0.06,0.06,0.06,0.07,0.07,0.07,0.08,0.08,0.10,0.10,0.10,0.10,0.10,0.10,0.08,0.07,0.06,0.05,0.02,0.01,-0.01,-0.04,-0.05,-0.05,-0.06,-0.05,-0.04,-0.02,-0.01,0.00,0.01,0.02,0.02,0.04,0.04,0.05,0.05,0.05,0.05,0.05,0.05,0.06,0.06,0.06,0.05,0.05,0.05,0.05,0.05,0.05,0.05,0.06,0.06,0.05,0.05,0.05,0.05,0.05,0.05,0.05,0.05,0.05,0.05,0.04,0.04,0.04,0.04,0.04,0.05,0.05,0.05,0.04,0.05,0.05,0.05,0.05,0.05,0.05,0.05,0.04,0.04,0.04,0.04,0.05,0.05,0.06,0.06,0.06,0.05,0.05,0.05,0.04,0.04,0.04,0.04,0.05,0.05,0.05,0.05,0.05,0.05,0.05,0.04,0.02,0.02,0.13,0.31,0.44,0.36,0.22,0.06,-0.19,-0.30,-0.22,-0.12,-0.05,0.00,0.01,0.02,0.04,0.04,0.05,0.05,0.05,0.05,0.05,1541131442,0.05,0.05,0.05,0.05,0.05,0.05,0.05,0.06,0.06,0.06,0.06,0.06,0.07,0.07,0.08,0.08,0.08,0.10,0.10,0.10,0.10,0.10,0.08,0.07,0.07,0.06,0.05,0.02,0.00,-0.02,-0.04,-0.05,-0.06,-0.05,-0.05,-0.04,-0.02,-0.01,0.00,0.01,0.02,0.04,0.04,0.02,0.04,0.05,0.04,0.05,0.05,0.05,0.05,0.06,0.05,0.05,0.06,0.06,0.06,0.06,0.06,0.06,0.06,0.05,0.05,0.05,0.05,0.05,0.05,0.05,0.05,0.05,0.05,0.05,0.05,0.05,0.05,0.05,0.05,0.05,0.05,0.05,0.05,0.05,0.04,0.04,0.05,0.05,0.05,0.05,0.06,0.06,0.06,0.06,0.06,0.06,0.05,0.04,0.04,0.04,0.04,0.04,0.05,0.05,0.05,0.05,0.05,0.05,0.05,0.06,0.05,0.07,0.18,0.32,0.36,0.18,0.02,-0.06,-0.18,-0.18,-0.10,-0.02,0.02,0.04,0.04,0.04,0.05,0.05,0.05,0.05,0.05,0.05,0.06,0.06,0.06,0.05,0.05,0.05,0.05,0.06,0.06,0.06,0.06,0.06,0.06,0.06,0.07,0.07,0.08,0.08,0.08,0.10,0.10,0.10,0.08,0.08,0.07,0.06,0.06,0.04,0.01,0.00,-0.02,-0.04,-0.05,-0.05,-0.05,-0.04,-0.04,-0.02,0.00,0.01,0.01,0.02,0.04,0.04,0.04,0.04,0.04,0.05,0.05,0.05,1541131442,0.05,0.05,0.05,0.05,0.05,0.05,0.05,0.05,0.06,0.05,0.05,0.05,0.05,0.06,0.06,0.05,0.05,0.05,0.05,0.05,0.05,0.05,0.05,0.05,0.05,0.05,0.05,0.05,0.05,0.05,0.05,0.05,0.05,0.05,0.05,0.05,0.05,0.04,0.04,0.05,0.05,0.05,0.05,0.05,0.06,0.06,0.06,0.06,0.06,0.05,0.04,0.04,0.04,0.04,0.04,0.05,0.05,0.04,0.05,0.05,0.05,0.05,0.05,0.07,0.22,0.36,0.41,0.23,0.08,-0.07,-0.26,-0.24,-0.13,-0.04,0.01,0.02,0.02,0.02,0.02,0.02,0.02,0.04,0.04,0.05,0.05,0.05,0.05,0.05,0.05,0.05,0.06,0.06,0.06,0.06,0.06,0.06,0.07,0.07,0.08,0.08,0.10,0.10,0.10,0.11,0.10,0.11,0.10,0.08,0.07,0.07,0.06,0.04,0.02,0.00,-0.02,-0.04,-0.04,-0.05,-0.05,-0.05,-0.04,-0.02,-0.02,-0.01,0.00,0.01,0.02,0.02,0.04,0.04,0.04,0.05,0.05,0.04,0.04,0.04,0.04,0.04,0.05,0.05,0.05,0.06,0.07,0.07,0.07,0.06,0.06,0.06,0.06,0.06,0.06,0.06,0.06,0.05,0.05,0.05,0.05,0.05,0.05,0.05,0.05,0.05,0.05,0.05,0.05,0.05,0.05,0.05,0.05,0.05,0.05,0.05,0.05,0.05,0.06,0.05,0.05,0.05,0.05,0.05,1541131443,0.05,0.05,0.05,0.05,0.06,0.06,0.05,0.05,0.05,0.04,0.02,0.02,0.04,0.04,0.05,0.05,0.05,0.05,0.04,0.04,0.04,0.04,0.04,0.05,0.16,0.35,0.47,0.38,0.24,0.05,-0.26,-0.35,-0.24,-0.11,-0.04,0.01,0.02,0.02,0.02,0.04,0.04,0.04,0.05,0.04,0.05,0.04,0.05,0.04,0.05,0.05,0.05,0.06,0.06,0.06,0.06,0.06,0.07,0.07,0.08,0.08,0.08,0.08,0.10,0.10,0.10,0.10,0.10,0.10,0.08,0.07,0.06,0.05,0.02,0.00,-0.02,-0.05,-0.06,-0.06,-0.06,-0.05,-0.04,-0.02,-0.01,0.00,0.01,0.02,0.02,0.02,0.04,0.04,0.04,0.05,0.05,0.05,0.04,0.05,0.05,0.05,0.05,0.05,0.06,0.06,0.06,0.06,0.06,0.05,0.05,0.06,0.06,0.06,0.06,0.06,0.06,0.06,0.05,0.05,0.05,0.05,0.05,0.04,0.04,0.05,0.05,0.05,0.05,0.05,0.05,0.05,0.05,0.05,0.05,0.05,0.05,0.05,0.05,0.05,0.04,0.05,0.05,0.06,0.06,0.06,0.05,0.05,0.04,0.05,0.05,0.06,0.05,0.05,0.06,0.06,0.06,0.06,0.06,0.06,0.05,0.04,0.02,0.02,0.02,0.04,0.04,0.04,0.04,0.04,0.04,0.04,0.05,0.02,0.05,0.16,0.34,0.44,0.31,0.16,-0.02,-0.25,-0.30,-0.20,1541131443,-0.12,-0.08,-0.06,-0.06,-0.05,-0.02,0.02,0.07,0.10,0.10,0.10,0.08,0.06,0.05,0.04,0.05,0.06,0.08,0.10,0.11,0.11,0.10,0.08,0.08,0.08,0.08,0.08,0.10,0.10,0.10,0.11,0.11,0.10,0.10,0.10,0.10,0.08,0.06,0.05,0.04,0.01,0.00,-0.02,-0.05,-0.05,-0.05,-0.05,-0.04,-0.04,-0.02,-0.01,0.00,0.01,0.01,0.02,0.02,0.04,0.05,0.05,0.05,0.05,0.05,0.05,0.05,0.06,0.07,0.08,0.11,0.11,0.06,0.02,0.00,0.01,0.02,0.02,0.04,0.04,0.05,0.05,0.06,0.07,0.10,0.11,0.08,0.06,0.04,0.05,0.05,0.05,0.06,0.06,0.06,0.07,0.06,0.06,0.02,0.01,0.01,0.02,0.02,0.01,-0.01,-0.02,-0.01,0.02,0.06,0.07,0.07,0.06,0.06,0.07,0.06,0.05,0.05,0.04,0.05,0.05,0.05,0.05,0.04,0.02,0.02,0.01,0.02,0.02,0.02,0.04,0.04,0.05,0.06,0.06,0.06,0.06,0.08,0.17,0.34,0.47,0.37,0.20,0.07,-0.14,-0.26,-0.19,-0.13,-0.08,-0.05,-0.04,-0.04,-0.01,0.00,0.00,0.01,0.01,0.02,0.05,0.07,0.10,0.11,0.10,0.10,0.10,0.10,0.07,0.05,0.02,0.01,0.01,0.01,0.02,0.04,0.05,0.07,0.07,0.08,0.10,0.10,0.10,0.10,0.07,0.08,1541131443,0.08,0.08,0.08,0.06,0.04,0.01,-0.01,-0.02,-0.05,-0.05,-0.04,-0.04,-0.02,-0.01,-0.01,-0.01,0.00,0.01,0.02,0.04,0.05,0.06,0.07,0.07,0.08,0.08,0.08,0.07,0.06,0.05,0.05,0.05,0.04,0.02,0.02,0.02,0.02,0.05,0.06,0.05,0.05,0.05,0.04,0.05,0.05,0.05,0.05,0.05,0.04,0.02,0.04,0.05,0.05,0.05,0.05,0.04,0.05,0.05,0.05,0.05,0.05,0.05,0.05,0.06,0.07,0.08,0.08,0.08,0.07,0.06,0.06,0.07,0.07,0.05,0.04,0.05,0.06,0.07,0.07,0.06,0.05,0.04,0.02,0.00,-0.02,-0.02,-0.01,-0.01,0.00,0.02,0.05,0.06,0.06,0.05,0.02,0.00,0.05,0.20,0.37,0.36,0.18,0.06,-0.10,-0.22,-0.18,-0.08,-0.04,-0.02,-0.04,-0.04,-0.02,-0.01,0.00,0.02,0.04,0.05,0.06,0.07,0.10,0.12,0.12,0.12,0.10,0.08,0.08,0.08,0.07,0.07,0.07,0.07,0.07,0.07,0.08,0.11,0.12,0.11,0.07,0.06,0.06,0.07,0.08,0.10,0.11,0.11,0.08,0.07,0.07,0.05,0.02,0.00,-0.02,-0.02,-0.02,-0.01,-0.01,-0.02,-0.02,-0.02,-0.02,0.00,0.02,0.06,0.10,0.14,0.18,0.17,0.13,0.07,0.05,0.02,0.02,0.02,0.01,0.01,0.00,-0.01,0.00,-0.01,-0.04,-0.07,1541131443,-0.12,-0.10,-0.02,0.04,0.08,0.08,0.06,0.07,0.08,0.08,0.07,0.04,-0.02,-0.08,-0.14,-0.17,-0.14,-0.10,-0.05,0.01,0.06,0.10,0.11,0.11,0.11,0.12,0.12,0.14,0.16,0.16,0.14,0.16,0.17,0.16,0.13,0.10,0.05,0.01,-0.01,0.00,0.02,0.06,0.07,0.06,0.02,0.01,0.02,0.02,0.02,0.01,0.01,0.01,0.01,-0.01,0.04,0.05,0.06,0.16,0.34,0.49,0.40,0.25,0.10,-0.14,-0.24,-0.17,-0.08,-0.02,0.00,0.01,0.01,0.01,0.02,0.05,0.07,0.07,0.07,0.07,0.08,0.07,0.06,0.08,0.12,0.17,0.20,0.19,0.12,0.06,0.04,0.02,0.02,-0.01,-0.04,-0.05,-0.06,-0.08,-0.10,-0.10,-0.11,-0.10,-0.07,-0.06,-0.04,0.01,0.06,0.07,0.06,0.05,0.05,0.04,0.02,0.02,0.02,0.02,0.02,0.02,0.04,0.07,0.02,-0.11,-0.24,-0.30,-0.17,-0.10,-0.04,-0.01,0.13,0.25,0.28,0.24,0.19,0.13,0.10,0.08,0.11,0.14,0.17,0.16,0.12,0.10,0.08,0.05,0.02,0.00,0.00,0.00,0.00,0.00,0.01,0.02,0.05,0.08,0.12,0.14,0.17,0.20,0.22,0.20,0.14,0.11,0.07,0.05,0.02,0.01,0.00,0.00,0.02,0.05,0.04,0.01,0.01,0.02,0.00,-0.04,-0.05,-0.04,0.01,0.08,0.18,0.23,1541131443,0.20,0.14,0.12,0.12,0.17,0.17,0.17,0.16,0.18,0.19,0.12,-0.02,-0.16,-0.10,0.10,0.23,0.13,0.01,-0.11,-0.22,-0.19,-0.12,-0.14,-0.19,-0.25,-0.28,-0.19,-0.07,0.04,0.08,0.07,0.02,0.00,-0.02,-0.02,-0.01,0.02,0.08,0.13,0.19,0.24,0.25,0.24,0.23,0.22,0.20,0.18,0.13,0.11,0.07,0.05,0.04,0.00,-0.02,-0.05,-0.06,-0.05,0.00,0.05,0.06,0.06,0.05,0.04,0.04,0.02,0.01,0.01,0.00,-0.02,-0.04,-0.02,0.00,0.02,0.05,0.05,0.02,0.01,0.00,0.00,0.00,0.02,0.04,0.05,0.04,0.02,0.02,0.01,0.02,0.04,0.04,0.05,0.06,0.06,0.05,0.07,0.07,0.08,0.11,0.17,0.19,0.19,0.20,0.24,0.26,0.22,0.20,0.17,0.07,0.05,0.12,0.02,-0.19,-0.31,-0.29,-0.19,-0.11,-0.05,0.01,0.04,0.04,-0.01,-0.07,-0.08,-0.06,0.00,0.06,0.13,0.19,0.18,0.08,0.00,-0.05,-0.10,-0.13,-0.18,-0.24,-0.16,-0.08,-0.04,-0.01,0.01,0.02,0.04,0.04,0.23,0.62,0.76,0.53,0.28,0.11,-0.10,-0.18,-0.10,0.00,0.04,0.04,0.04,0.05,0.07,0.10,0.10,0.11,0.11,0.11,0.12,0.12,0.11,0.10,0.07,0.06,0.07,0.07,0.10,0.11,0.11,0.05,0.00,-0.01,-0.01,0.00,1541131443,0.02,0.04,0.05,0.06,0.07,0.10,0.12,0.12,0.11,0.08,0.05,0.01,-0.01,-0.02,-0.02,-0.02,0.00,0.00,0.02,0.05,0.05,0.05,0.04,0.04,0.07,0.11,0.13,0.12,0.12,0.11,0.08,0.08,0.10,0.08,0.06,0.04,0.00,-0.02,-0.04,-0.06,-0.11,-0.16,-0.14,-0.08,-0.02,-0.01,0.00,0.02,0.04,0.04,0.02,-0.01,-0.05,-0.07,-0.07,-0.07,-0.04,0.04,0.10,0.17,0.20,0.20,0.20,0.17,0.12,0.10,0.06,0.02,0.00,0.00,0.01,0.04,0.07,0.07,0.06,0.05,0.04,0.05,0.06,0.06,0.05,0.04,0.02,0.01,0.01,0.01,0.01,0.01,0.00,-0.02,-0.04,-0.02,-0.01,0.00,0.01,0.07,0.25,0.44,0.49,0.34,0.18,-0.04,-0.26,-0.26,-0.17,-0.07,0.02,0.06,0.04,0.02,0.02,0.07,0.13,0.18,0.17,0.13,0.11,0.07,0.02,-0.02,-0.05,-0.02,0.05,0.08,0.11,0.13,0.14,0.12,0.10,0.06,0.05,0.01,0.00,-0.02,-0.05,-0.02,0.04,0.11,0.12,0.08,0.06,0.02,-0.02,-0.10,-0.12,-0.12,-0.14,-0.16,-0.16,-0.17,-0.16,-0.13,-0.12,-0.10,-0.05,-0.01,0.05,0.14,0.18,0.18,0.17,0.16,0.17,0.20,0.28,0.31,0.24,0.13,0.07,0.07,0.12,0.17,0.13,0.06,-0.02,-0.08,-0.10,-0.08,-0.05,0.01,1541131443,0.07,0.11,0.13,0.14,0.14,0.14,0.11,0.06,0.01,-0.01,-0.01,0.00,0.02,0.02,0.04,0.05,0.04,0.05,0.05,0.05,0.05,0.04,0.02,0.05,0.06,0.10,0.10,0.10,0.11,0.13,0.20,0.28,0.34,0.31,0.22,0.16,0.11,0.05,-0.13,-0.20,-0.17,-0.13,-0.12,-0.11,-0.10,-0.08,-0.07,-0.04,0.11,0.32,0.41,0.22,0.00,-0.24,-0.44,-0.41,-0.25,-0.10,0.00,0.05,0.06,0.06,0.06,0.06,0.04,0.01,0.02,0.06,0.12,0.16,0.16,0.18,0.20,0.19,0.17,0.11,0.04,0.01,0.02,0.05,0.04,-0.01,-0.11,-0.18,-0.22,-0.14,-0.06,0.01,0.08,0.14,0.19,0.19,0.19,0.22,0.25,0.25,0.22,0.14,0.10,0.10,0.08,0.07,0.07,0.10,0.07,-0.02,-0.08,-0.06,0.01,0.04,-0.01,-0.06,-0.08,-0.07,-0.05,-0.02,0.06,0.19,0.26,0.31,0.42,0.37,0.25,0.18,0.12,0.04,-0.10,-0.14,-0.13,-0.08,-0.05,-0.02,0.00,0.01,0.00,-0.02,-0.06,-0.10,-0.11,-0.12,-0.13,-0.13,-0.11,-0.06,-0.04,-0.07,-0.10,-0.14,-0.22,-0.14,-0.07,-0.04,0.00,0.01,0.02,0.02,0.04,0.04,0.04,0.04,0.05,0.05,0.25,0.44,0.40,0.29,0.23,0.20,0.18,0.13,0.11,0.07,0.06,0.04,0.02,0.05,0.06,0.08,0.20,0.35,1541131444,0.43,0.28,0.11,-0.04,-0.25,-0.32,-0.24,-0.14,-0.08,-0.04,0.01,0.05,0.06,0.08,0.10,0.10,0.11,0.10,0.10,0.12,0.16,0.18,0.17,0.17,0.14,0.12,0.08,0.04,0.00,-0.02,-0.01,0.00,0.04,0.10,0.14,0.14,0.12,0.10,-0.01,-0.11,-0.17,-0.19,-0.17,-0.10,-0.02,0.01,0.06,0.07,0.07,0.07,0.07,0.05,0.00,-0.02,-0.05,-0.02,0.01,0.05,0.06,0.07,0.07,0.08,0.08,0.05,0.01,0.00,0.00,0.01,0.01,0.02,0.06,0.08,0.10,0.10,0.06,0.02,-0.01,-0.02,-0.01,0.00,0.02,0.05,0.07,0.10,0.11,0.12,0.12,0.11,0.12,0.12,0.11,0.11,0.11,0.13,0.14,0.16,0.14,0.13,0.13,0.13,0.13,0.13,0.14,0.14,0.11,0.07,-0.02,-0.10,-0.12,-0.12,-0.12,-0.07,0.00,0.08,0.14,0.18,0.20,0.23,0.24,0.18,0.13,0.10,0.07,0.05,-0.05,-0.02,0.13,0.10,0.08,0.07,0.06,0.05,0.04,-0.14,-0.37,-0.40,-0.32,-0.26,-0.22,-0.18,-0.17,-0.16,-0.14,-0.13,-0.13,-0.13,-0.07,-0.02,0.00,0.01,0.02,0.04,0.04,0.04,0.04,0.04,0.05,0.04,0.04,0.04,0.05,0.05,0.35,0.52,0.46,0.36,0.26,0.20,0.17,0.12,0.07,0.04,0.01,-0.01,-0.04,-0.05,-0.08,-0.08,-0.06,-0.05,1541131445,-0.04,-0.02,0.01,0.02,0.06,0.10,0.12,0.16,0.14,0.11,0.08,0.08,0.10,0.08,0.08,0.10,0.10,0.10,0.08,0.07,0.06,0.04,-0.01,-0.06,-0.11,-0.07,0.05,0.14,0.18,0.17,0.12,0.02,-0.04,-0.07,-0.04,0.04,0.16,0.19,0.11,-0.01,0.00,0.10,0.16,0.16,0.12,0.07,-0.01,-0.11,-0.13,-0.16,-0.18,-0.22,-0.19,-0.13,0.01,0.16,0.22,0.20,0.17,0.12,0.06,0.05,0.06,0.06,0.05,0.05,0.07,0.07,0.07,0.07,0.06,0.05,0.04,0.02,0.00,0.06,0.22,0.35,0.28,0.14,0.04,-0.19,-0.29,-0.18,-0.07,0.02,0.07,0.08,0.08,0.08,0.11,0.13,0.17,0.17,0.17,0.13,0.12,0.12,0.11,0.12,0.16,0.18,0.20,0.20,0.19,0.13,0.08,0.06,0.07,0.01,-0.05,-0.10,-0.16,-0.14,-0.06,0.06,0.14,0.20,0.25,0.22,0.17,0.12,0.10,0.07,0.06,0.06,0.05,0.05,0.04,-0.10,-0.30,-0.31,-0.24,-0.20,-0.18,-0.16,-0.10,-0.05,-0.06,-0.08,-0.10,-0.07,-0.05,-0.02,-0.07,-0.13,-0.18,-0.12,-0.06,-0.02,0.01,0.02,0.02,0.04,0.04,0.04,0.04,0.04,0.05,0.05,0.05,0.05,0.05,0.05,0.05,0.05,0.08,0.25,0.31,0.30,0.28,0.26,0.30,0.31,0.29,0.18,0.06,-0.02,-0.07,-0.08,1541131446,-0.06,-0.02,0.01,0.05,0.07,0.08,0.12,0.14,0.16,0.11,0.04,-0.01,0.00,0.04,0.06,0.07,0.08,0.07,0.06,0.05,0.05,0.05,0.04,0.04,0.04,0.07,0.22,0.42,0.36,0.26,0.19,0.13,0.10,0.07,0.01,-0.14,-0.26,-0.28,-0.20,-0.08,-0.01,-0.01,-0.07,-0.16,-0.17,-0.10,-0.02,0.00,0.04,0.07,0.12,0.12,0.12,0.08,0.04,0.05,0.08,0.12,0.12,0.06,-0.02,-0.06,-0.08,-0.07,0.00,0.07,0.12,0.12,0.11,0.10,0.11,0.12,0.12,0.11,0.07,0.06,0.05,0.04,0.06,0.07,0.07,0.02,-0.01,-0.02,-0.02,-0.01,-0.01,0.00,0.00,0.00,0.01,0.01,0.04,0.06,0.07,0.08,0.13,0.16,0.17,0.17,0.17,0.16,0.16,0.14,0.14,0.14,0.17,0.18,0.19,0.17,0.14,0.12,0.10,0.07,0.06,0.05,-0.05,-0.11,-0.07,-0.01,0.00,0.01,0.04,0.05,0.05,0.04,0.02,0.02,0.05,0.04,0.01,-0.02,-0.04,-0.06,-0.07,-0.07,-0.07,-0.06,-0.07,-0.10,-0.12,-0.12,-0.13,-0.14,-0.13,-0.14,-0.17,-0.18,-0.14,-0.06,0.05,0.11,0.16,0.25,0.36,0.34,0.11,-0.10,-0.32,-0.28,-0.16,-0.08,-0.04,0.00,0.01,0.02,0.02,0.04,0.04,0.04,0.04,0.04,0.05,0.31,0.42,0.34,0.23,0.16,0.12,0.11,1541131447,0.11,0.10,0.08,0.08,0.10,0.10,0.08,0.05,0.01,-0.02,-0.01,0.01,0.05,0.10,0.11,0.13,0.14,0.17,0.18,0.19,0.19,0.18,0.17,0.14,0.13,0.13,0.10,0.02,-0.02,-0.05,-0.06,-0.05,0.00,0.07,0.13,0.17,0.11,-0.01,-0.10,-0.12,-0.07,0.00,0.07,0.13,0.16,0.10,0.01,0.01,0.12,0.23,0.19,0.05,-0.07,-0.08,-0.06,-0.07,-0.11,-0.13,-0.17,-0.19,-0.20,-0.20,-0.19,-0.17,-0.14,-0.11,-0.06,0.04,0.16,0.25,0.29,0.31,0.30,0.26,0.23,0.19,0.12,0.05,0.00,0.00,0.00,0.01,0.02,0.00,-0.01,-0.04,-0.04,-0.05,-0.05,-0.04,-0.04,-0.02,-0.02,0.00,0.04,0.07,0.11,0.12,0.13,0.13,0.20,0.36,0.50,0.47,0.32,0.19,-0.05,-0.25,-0.22,-0.10,-0.01,0.06,0.08,0.07,0.06,0.07,0.13,0.19,0.22,0.20,0.18,0.18,0.17,0.13,0.10,0.07,0.02,-0.02,-0.04,-0.04,-0.01,0.01,0.02,0.01,0.00,0.00,0.02,0.05,0.04,0.05,0.07,0.10,0.12,0.11,0.07,0.01,-0.08,-0.20,-0.29,-0.34,-0.34,-0.30,-0.24,-0.14,-0.05,0.00,-0.02,-0.07,-0.13,-0.14,-0.07,-0.02,0.00,0.01,0.02,0.02,0.04,0.04,0.04,0.04,0.05,0.05,0.05,0.05,0.38,0.47,0.36,0.25,0.18,0.12,1541131447,0.07,0.05,0.04,0.04,0.06,0.07,0.06,0.04,0.05,0.06,0.07,0.06,0.04,0.02,0.02,0.05,0.05,0.07,0.08,0.10,0.10,0.08,0.07,0.07,0.10,0.11,0.13,0.14,0.13,0.13,0.12,0.10,0.07,0.05,0.06,0.05,0.02,0.01,0.06,0.13,0.13,0.02,-0.08,-0.10,-0.10,-0.07,0.10,0.32,0.44,0.26,0.05,-0.08,-0.12,0.05,0.17,0.11,0.01,-0.06,-0.11,-0.14,-0.14,-0.12,-0.07,-0.06,-0.07,-0.11,-0.13,-0.16,-0.17,-0.17,-0.12,-0.04,0.10,0.19,0.25,0.28,0.29,0.28,0.28,0.24,0.20,0.17,0.12,0.07,0.05,0.02,0.02,0.01,0.00,-0.02,-0.02,-0.02,-0.02,-0.01,-0.01,-0.02,-0.04,-0.04,-0.04,-0.01,0.00,0.02,0.05,0.05,0.05,0.05,0.06,0.08,0.11,0.12,0.12,0.11,0.11,0.10,0.10,0.08,0.07,0.07,0.07,0.07,0.06,0.08,0.10,0.08,0.10,0.11,0.13,0.14,0.12,0.10,0.11,0.10,0.07,0.07,0.06,0.07,0.08,0.11,0.12,0.11,0.06,0.00,-0.04,-0.06,-0.08,-0.08,-0.08,-0.10,-0.13,-0.18,-0.20,-0.25,-0.28,-0.28,-0.24,-0.16,-0.07,0.00,0.04,0.06,0.05,-0.01,-0.07,-0.02,0.00,0.01,0.02,0.04,0.04,0.04,0.04,0.04,0.35,0.56,0.46,0.31,0.06,-0.11,-0.07,0.01,1541131448,0.07,0.13,0.13,0.10,0.06,0.04,0.00,-0.02,-0.05,-0.05,-0.01,0.04,0.07,0.08,0.10,0.10,0.11,0.10,0.10,0.11,0.12,0.16,0.17,0.13,0.11,0.12,0.13,0.14,0.14,0.13,0.13,0.13,0.14,0.14,0.14,0.11,0.06,0.02,0.01,-0.01,-0.05,-0.06,-0.05,0.00,0.04,0.01,-0.02,-0.02,-0.01,-0.04,-0.08,-0.06,0.01,0.12,0.18,0.12,0.02,0.02,0.10,0.12,0.10,0.02,-0.02,-0.05,-0.07,-0.07,-0.07,-0.10,-0.13,-0.17,-0.18,-0.16,-0.12,-0.04,0.07,0.16,0.17,0.14,0.11,0.11,0.11,0.11,0.11,0.12,0.11,0.08,0.07,0.07,0.06,0.05,0.05,0.05,0.04,0.01,-0.01,0.00,0.00,0.01,0.04,0.06,0.07,0.07,0.08,0.11,0.12,0.12,0.12,0.12,0.11,0.10,0.07,0.07,0.06,0.06,0.07,0.07,0.18,0.36,0.44,0.30,0.20,0.14,0.04,-0.22,-0.28,-0.22,-0.13,-0.07,-0.02,-0.01,0.01,0.06,0.13,0.19,0.22,0.24,0.24,0.24,0.20,0.16,0.12,0.10,0.07,0.06,0.06,0.05,0.05,0.04,-0.02,-0.13,-0.19,-0.20,-0.17,-0.11,-0.05,0.01,0.02,-0.01,-0.05,-0.10,-0.12,-0.10,-0.08,-0.18,-0.35,-0.34,-0.19,-0.11,-0.05,-0.01,0.00,0.02,0.02,0.04,0.04,0.04,0.04,0.05,0.04,0.07,1541131449,0.20,0.23,0.20,0.17,0.13,0.11,0.10,0.10,0.12,0.16,0.20,0.23,0.23,0.23,0.20,0.13,0.05,0.00,-0.02,-0.05,-0.11,-0.16,-0.10,0.05,0.18,0.24,0.19,0.10,0.04,0.02,0.01,0.00,-0.01,0.01,0.06,0.10,0.11,0.12,0.12,0.12,0.10,0.05,0.02,0.02,0.04,0.08,0.12,0.14,0.13,0.12,0.11,0.04,-0.02,-0.05,-0.04,0.06,0.12,0.12,0.06,0.00,0.04,0.18,0.30,0.25,0.12,0.02,-0.16,-0.31,-0.26,-0.16,-0.07,-0.05,-0.05,-0.02,-0.01,0.00,0.04,0.08,0.10,0.06,0.01,-0.01,-0.04,-0.02,-0.01,0.00,0.01,0.04,0.06,0.08,0.11,0.14,0.14,0.14,0.14,0.14,0.14,0.14,0.14,0.13,0.10,0.08,0.08,0.06,0.05,0.05,0.05,0.06,0.06,0.05,0.01,0.00,-0.01,-0.01,0.00,0.01,0.02,0.04,0.06,0.08,0.08,0.05,0.02,0.01,0.01,0.02,0.02,0.01,0.00,0.00,0.00,0.04,0.07,0.12,0.18,0.23,0.26,0.29,0.25,0.17,0.11,0.11,0.14,0.12,0.10,0.07,0.06,0.06,0.05,-0.07,-0.31,-0.49,-0.48,-0.29,-0.04,0.12,0.13,0.05,-0.05,-0.24,-0.37,-0.36,-0.20,-0.11,-0.06,-0.01,0.00,0.02,0.02,0.04,0.04,0.04,0.04,0.05,0.04,0.05,0.04,0.11,0.31,0.35,1541131450,0.28,0.20,0.16,0.12,0.14,0.29,0.41,0.37,0.22,0.11,-0.07,-0.24,-0.19,-0.08,0.00,0.05,0.05,0.01,-0.02,-0.05,-0.02,0.01,0.06,0.10,0.12,0.14,0.16,0.17,0.14,0.12,0.11,0.11,0.11,0.12,0.11,0.08,0.06,0.04,0.02,0.02,0.04,0.06,0.06,0.07,0.07,0.08,0.11,0.13,0.11,0.05,0.01,-0.04,-0.10,-0.17,-0.24,-0.22,-0.13,0.01,0.13,0.17,0.13,0.10,0.05,-0.01,-0.05,-0.07,-0.04,0.07,0.13,0.16,0.13,0.07,-0.01,-0.04,0.00,0.05,0.06,0.07,0.07,0.07,0.01,-0.08,-0.13,-0.08,0.02,0.13,0.18,0.14,0.08,0.06,0.07,0.10,0.10,0.08,0.08,0.08,0.11,0.11,0.07,0.00,-0.06,-0.10,-0.06,0.01,0.06,0.08,0.08,0.06,0.10,0.10,0.08,0.07,0.06,0.05,0.01,0.00,0.00,0.00,0.00,0.01,0.04,0.06,0.07,0.07,0.07,0.07,0.07,0.06,0.05,0.11,0.31,0.48,0.36,0.24,0.12,-0.17,-0.40,-0.43,-0.40,-0.31,-0.18,-0.05,0.06,0.12,0.14,0.13,0.10,0.13,0.20,0.25,0.26,0.22,0.12,0.05,-0.02,-0.14,-0.24,-0.25,-0.24,-0.05,0.18,0.42,0.55,0.53,0.38,0.26,0.18,0.13,0.05,-0.34,-0.59,-0.46,-0.26,-0.22,-0.29,-0.34,-0.22,-0.12,-0.06,-0.02,1541131451,0.00,0.02,0.02,0.11,0.20,0.20,0.18,0.14,0.10,0.06,0.07,0.11,0.17,0.19,0.18,0.18,0.17,0.12,0.00,-0.10,-0.12,-0.05,0.05,0.10,0.17,0.23,0.23,0.14,0.08,0.08,0.11,0.13,0.12,0.12,0.13,0.13,0.13,0.10,0.10,0.07,0.07,0.08,-0.01,-0.11,-0.10,-0.07,-0.02,0.02,0.06,0.07,0.07,0.06,0.05,0.06,0.06,0.06,0.04,0.02,0.01,0.00,0.02,0.07,0.08,0.07,0.02,-0.01,0.04,0.04,-0.04,-0.11,-0.04,0.23,0.44,0.43,0.34,0.16,-0.16,-0.28,-0.14,-0.05,-0.07,-0.08,-0.07,0.00,0.02,0.00,-0.02,0.01,0.02,0.05,0.04,0.05,0.08,0.05,0.00,-0.01,0.01,0.08,0.10,0.06,0.04,0.02,0.01,0.02,0.02,0.02,0.06,0.14,0.19,0.19,0.14,0.16,0.14,0.10,0.07,0.06,0.07,0.07,0.08,0.00,-0.06,-0.08,-0.08,-0.06,-0.05,-0.01,0.02,-0.01,-0.07,-0.05,0.01,0.05,0.02,0.00,0.02,0.05,0.06,0.07,0.11,0.08,0.06,0.07,0.05,0.02,0.00,-0.01,-0.01,0.02,0.04,0.04,0.05,0.06,0.07,0.08,0.08,0.06,0.02,0.05,0.06,0.07,0.07,0.05,-0.01,-0.01,0.02,0.05,0.06,0.06,0.06,0.08,0.06,0.02,0.06,0.08,0.08,0.04,0.02,0.02,0.02,0.04,1541131452,0.06,0.08,0.08,0.10,0.11,0.10,0.05,0.06,0.05,0.02,-0.02,-0.02,-0.01,0.07,0.29,0.44,0.42,0.28,0.13,-0.13,-0.35,-0.34,-0.22,-0.12,-0.05,0.02,0.05,0.07,0.06,0.07,0.10,0.11,0.11,0.08,0.06,0.06,0.06,0.05,0.04,0.04,0.04,0.05,0.05,0.04,0.01,0.02,0.05,0.06,0.05,0.04,0.05,0.07,0.10,0.10,0.11,0.10,0.05,0.04,0.04,0.02,0.04,0.06,-0.02,-0.07,-0.06,-0.04,-0.05,-0.07,-0.07,-0.06,-0.02,0.01,0.04,0.05,0.01,-0.02,0.02,0.17,0.14,0.05,-0.01,0.08,0.14,0.02,-0.07,-0.04,0.01,0.08,0.06,0.05,-0.02,-0.02,0.00,0.02,0.05,0.07,0.10,0.08,0.07,0.06,0.07,0.07,0.10,0.14,0.10,0.01,0.02,0.07,0.16,0.19,0.13,0.01,0.04,0.12,0.07,-0.01,-0.01,0.05,0.11,0.06,-0.02,-0.02,0.02,0.10,0.08,0.04,0.01,0.04,0.11,0.12,0.07,-0.01,-0.01,0.10,0.11,0.04,0.11,0.30,0.43,0.32,0.20,0.01,-0.26,-0.35,-0.25,-0.14,-0.05,0.05,0.04,-0.06,-0.06,0.01,0.05,0.10,0.07,0.05,0.05,0.06,0.05,0.06,0.04,0.01,0.02,0.08,0.07,0.07,0.10,0.07,0.10,0.11,0.06,-0.02,0.00,0.06,0.13,0.13,0.10,0.11,0.13,0.16,1541131453,0.13,0.10,0.08,0.05,0.01,0.01,-0.02,-0.10,-0.12,-0.07,-0.05,-0.07,-0.08,-0.06,0.00,0.00,-0.01,0.00,0.02,0.05,0.06,0.05,0.05,0.07,0.11,0.13,0.10,0.07,0.07,0.12,0.11,0.06,0.06,0.10,0.11,0.12,0.08,0.02,0.02,0.07,0.06,0.04,0.00,0.00,0.01,0.01,0.00,0.02,0.06,0.11,0.05,-0.06,-0.04,0.01,0.07,0.05,0.00,0.01,0.02,0.07,0.06,0.01,0.00,0.04,0.08,0.04,-0.02,0.02,0.07,0.06,0.01,0.04,0.05,0.06,0.14,0.34,0.48,0.43,0.23,0.06,-0.19,-0.32,-0.24,-0.14,-0.11,-0.02,0.02,0.02,0.02,0.04,0.05,0.05,0.04,0.04,0.05,0.05,0.07,0.08,0.07,0.07,0.10,0.08,0.04,0.04,0.06,0.06,0.08,0.10,0.11,0.10,0.11,0.07,0.06,0.05,0.10,0.10,0.08,0.07,0.04,0.01,0.01,0.00,0.01,-0.02,-0.06,-0.10,-0.07,-0.07,-0.07,-0.08,-0.06,-0.04,0.01,0.00,-0.02,-0.01,0.02,0.02,0.04,0.07,0.07,0.05,0.02,0.04,0.05,0.08,0.07,0.02,0.04,0.05,0.05,0.04,0.04,0.05,0.06,0.07,0.02,0.01,0.02,0.02,0.06,0.11,0.10,0.01,0.00,-0.01,0.02,0.06,0.07,0.07,0.06,0.04,0.04,0.07,0.10,0.07,0.05,0.04,0.05,0.06,1541131454,0.06,0.07,0.07,0.05,0.06,0.12,0.14,0.07,0.00,-0.01,0.06,0.05,0.02,0.04,0.04,-0.01,0.02,0.25,0.48,0.53,0.36,0.17,-0.07,-0.31,-0.30,-0.19,-0.11,-0.02,0.01,0.04,0.06,0.04,0.06,0.08,0.05,0.05,0.08,0.11,0.07,0.05,0.04,0.02,0.04,0.05,0.06,0.07,0.07,0.07,0.06,0.10,0.08,0.05,0.05,0.06,0.08,0.10,0.07,0.07,0.08,0.07,0.06,0.07,0.05,0.04,0.02,0.02,-0.01,-0.02,-0.02,-0.05,-0.07,-0.07,-0.05,-0.05,-0.05,-0.04,-0.01,0.02,0.02,0.01,0.01,0.05,0.06,0.08,0.10,0.05,0.02,0.00,0.01,0.04,0.06,0.06,0.06,0.06,0.07,0.08,0.08,0.10,0.11,0.08,0.05,0.05,0.08,0.13,0.11,0.02,0.02,0.06,0.06,0.02,0.05,0.08,0.07,0.00,0.02,0.07,0.08,0.05,0.05,0.07,0.07,0.07,0.07,0.07,0.07,0.06,0.02,0.04,0.05,0.07,0.04,-0.01,-0.01,0.02,0.04,0.04,0.02,0.02,0.05,0.05,0.02,0.00,0.01,0.16,0.34,0.46,0.36,0.20,0.00,-0.25,-0.36,-0.30,-0.18,-0.05,-0.04,-0.05,-0.05,-0.02,0.00,0.02,0.02,0.00,-0.01,-0.01,0.01,0.02,0.02,0.04,0.04,0.04,0.04,0.02,0.04,0.05,0.06,0.07,0.08,0.10,0.10,0.10,1541131455,0.08,0.08,0.08,0.11,0.11,0.10,0.10,0.08,0.06,0.04,0.01,-0.02,-0.06,-0.08,-0.10,-0.08,-0.07,-0.06,-0.04,-0.02,0.00,0.04,0.05,0.06,0.05,0.05,0.05,0.06,0.07,0.07,0.07,0.08,0.08,0.10,0.10,0.10,0.10,0.10,0.10,0.10,0.11,0.12,0.12,0.12,0.10,0.11,0.11,0.11,0.11,0.11,0.10,0.10,0.08,0.06,0.05,0.04,0.05,0.07,0.08,0.10,0.12,0.14,0.16,0.14,0.13,0.11,0.11,0.11,0.11,0.12,0.12,0.11,0.07,0.04,0.00,-0.04,-0.07,-0.11,-0.12,-0.12,-0.10,-0.06,-0.01,0.01,0.01,0.02,0.02,0.02,0.04,0.05,0.11,0.28,0.44,0.41,0.25,0.10,-0.05,-0.24,-0.22,-0.14,-0.06,-0.01,0.02,0.04,0.04,0.05,0.06,0.06,0.06,0.06,0.06,0.06,0.06,0.06,0.06,0.05,0.05,0.05,0.05,0.05,0.05,0.05,0.06,0.06,0.06,0.07,0.07,0.08,0.08,0.08,0.08,0.10,0.10,0.08,0.07,0.07,0.06,0.05,0.02,0.01,-0.01,-0.02,-0.04,-0.05,-0.05,-0.04,-0.02,-0.02,-0.01,0.00,0.01,0.01,0.02,0.02,0.04,0.04,0.04,0.04,0.04,0.04,0.04,0.04,0.04,0.04,0.02,0.02,0.02,0.02,0.04,0.05,0.06,0.06,0.07,0.07,0.07,0.07,0.07,0.08,0.08,0.08,1541131455,0.10,0.10,0.07,0.05,0.02,0.00,0.00,0.00,0.00,0.00,0.01,0.04,0.05,0.05,0.06,0.06,0.06,0.07,0.07,0.06,0.05,0.05,0.05,0.05,0.05,0.02,0.01,0.00,0.00,0.01,0.01,0.01,0.01,0.01,0.01,0.01,0.01,0.02,0.05,0.16,0.32,0.43,0.30,0.14,0.00,-0.22,-0.28,-0.17,-0.07,0.00,0.05,0.06,0.06,0.06,0.07,0.10,0.11,0.12,0.12,0.10,0.07,0.06,0.05,0.02,-0.01,-0.02,-0.02,-0.01,-0.01,0.00,0.01,0.04,0.06,0.08,0.10,0.12,0.13,0.14,0.14,0.13,0.12,0.10,0.08,0.07,0.07,0.07,0.05,0.01,-0.05,-0.08,-0.12,-0.13,-0.14,-0.14,-0.12,-0.10,-0.08,-0.07,-0.05,-0.05,-0.05,-0.05,-0.04,-0.02,0.01,0.05,0.06,0.06,0.07,0.07,0.10,0.12,0.14,0.14,0.14,0.13,0.12,0.11,0.08,0.07,0.05,0.05,0.04,0.02,0.02,0.02,0.02,0.02,0.04,0.06,0.08,0.10,0.11,0.12,0.13,0.13,0.13,0.13,0.12,0.10,0.06,0.02,0.02,0.05,0.06,0.07,0.07,0.06,0.04,0.02,0.01,0.00,0.00,0.00,-0.01,-0.01,-0.01,-0.01,-0.01,-0.01,0.00,0.01,0.02,0.08,0.23,0.38,0.36,0.18,0.05,-0.13,-0.28,-0.24,-0.12,-0.05,-0.01,0.00,0.00,0.00,0.02,0.02,1541131456,0.06,0.07,0.06,0.05,0.05,0.04,0.01,0.01,0.02,0.04,0.06,0.06,0.06,0.05,0.04,0.05,0.06,0.08,0.10,0.08,0.07,0.11,0.14,0.14,0.12,0.10,0.08,0.10,0.10,0.07,0.05,0.02,-0.01,-0.05,-0.06,-0.07,-0.06,-0.07,-0.04,0.04,0.04,-0.04,-0.08,-0.08,-0.04,0.02,0.10,0.14,0.17,0.17,0.16,0.16,0.14,0.14,0.14,0.13,0.11,0.10,0.08,0.07,0.08,0.07,0.06,0.06,0.05,0.02,0.01,-0.01,-0.02,-0.04,-0.04,-0.02,-0.02,0.00,0.01,0.01,0.01,0.04,0.05,0.05,0.04,0.02,0.01,0.02,0.01,0.00,0.00,0.00,0.04,0.01,-0.01,-0.02,0.00,0.00,0.00,-0.01,0.00,0.04,0.07,0.12,0.14,0.14,0.12,0.10,0.05,0.00,0.06,0.25,0.43,0.46,0.28,0.11,-0.07,-0.19,-0.17,-0.13,-0.11,-0.07,-0.01,0.04,0.06,0.07,0.06,0.05,0.02,0.02,0.04,0.05,0.05,0.06,0.08,0.08,0.06,0.04,0.01,-0.01,-0.02,-0.04,-0.02,0.00,0.02,0.05,0.07,0.06,0.01,-0.05,-0.11,-0.17,-0.22,-0.20,-0.06,0.12,0.25,0.30,0.29,0.23,0.19,0.12,0.04,-0.05,-0.08,-0.08,-0.10,-0.11,-0.14,-0.17,-0.14,-0.08,0.00,0.05,0.07,0.10,0.11,0.12,0.13,0.14,0.14,0.13,0.12,0.10,1541131457,0.07,0.06,0.05,0.04,0.04,0.05,0.06,0.07,0.08,0.10,0.11,0.11,0.11,0.10,0.10,0.10,0.10,0.07,0.06,0.05,0.02,0.02,0.01,0.00,0.00,0.00,0.00,0.01,0.02,0.04,0.05,0.04,0.05,0.06,0.10,0.10,0.10,0.10,0.11,0.12,0.13,0.12,0.08,0.06,0.07,0.08,0.08,0.10,0.08,0.06,0.13,0.28,0.36,0.25,0.11,-0.05,-0.25,-0.31,-0.25,-0.18,-0.11,-0.06,-0.05,-0.02,-0.01,0.00,0.01,0.02,0.02,0.04,0.05,0.05,0.06,0.07,0.08,0.07,0.04,0.00,-0.01,-0.02,-0.01,-0.02,0.00,0.07,0.14,0.20,0.24,0.24,0.24,0.24,0.24,0.24,0.19,0.14,0.11,0.07,0.06,0.06,0.05,0.02,0.00,-0.04,-0.05,-0.07,-0.10,-0.11,-0.10,-0.07,-0.06,-0.06,-0.05,-0.04,-0.04,-0.02,0.00,0.01,0.01,0.01,0.02,0.04,0.04,0.02,0.02,0.04,0.04,0.05,0.06,0.07,0.07,0.06,0.07,0.07,0.07,0.06,0.06,0.06,0.06,0.06,0.08,0.10,0.10,0.10,0.10,0.10,0.08,0.05,0.02,0.02,0.02,0.01,0.01,0.01,0.01,0.00,0.01,0.02,0.04,0.04,0.05,0.04,0.02,0.00,0.00,0.01,0.01,0.01,0.02,0.02,0.04,0.01,0.00,0.08,0.26,0.44,0.46,0.30,0.16,-0.08,-0.28,-0.24,1541131458,-0.12,-0.04,0.04,0.07,0.07,0.06,0.06,0.06,0.06,0.06,0.05,0.05,0.04,0.04,0.04,0.04,0.04,0.02,0.02,0.04,0.04,0.04,0.04,0.05,0.06,0.07,0.10,0.11,0.10,0.10,0.10,0.11,0.11,0.10,0.10,0.10,0.08,0.07,0.05,0.04,0.00,-0.04,-0.05,-0.05,-0.06,-0.06,-0.05,-0.04,-0.02,-0.02,-0.01,0.01,0.01,0.02,0.04,0.05,0.04,0.02,0.01,0.01,0.00,0.00,0.01,0.02,0.02,0.01,0.00,0.00,0.01,0.02,0.05,0.06,0.08,0.10,0.12,0.13,0.13,0.14,0.13,0.12,0.11,0.07,0.05,0.04,0.05,0.06,0.07,0.08,0.07,0.05,0.02,0.01,0.01,0.00,-0.01,-0.04,-0.05,-0.05,-0.05,-0.02,0.00,0.02,0.06,0.08,0.08,0.08,0.11,0.11,0.07,0.07,0.08,0.07,0.10,0.22,0.37,0.36,0.20,0.04,-0.20,-0.40,-0.38,-0.29,-0.20,-0.14,-0.11,-0.08,-0.06,-0.04,0.01,0.06,0.12,0.18,0.19,0.17,0.13,0.12,0.12,0.13,0.16,0.17,0.17,0.14,0.11,0.10,0.10,0.12,0.17,0.22,0.26,0.24,0.17,0.10,0.04,-0.02,-0.07,-0.06,-0.02,0.02,0.06,0.07,0.05,-0.02,-0.07,-0.10,-0.08,-0.07,-0.08,-0.11,-0.10,-0.08,-0.07,-0.05,-0.04,-0.02,0.00,0.02,0.05,0.04,0.02,0.05,1541131459,0.07,0.06,0.04,0.02,0.01,0.01,0.04,0.07,0.08,0.07,0.07,0.08,0.06,0.04,0.06,0.10,0.13,0.14,0.14,0.14,0.12,0.10,0.08,0.10,0.10,0.07,0.04,0.04,0.05,0.05,0.04,0.04,0.04,0.04,0.02,0.01,-0.01,-0.02,0.01,0.06,0.07,0.06,0.04,0.01,-0.02,-0.04,-0.01,0.01,0.06,0.20,0.37,0.37,0.26,0.16,-0.07,-0.19,-0.13,-0.05,0.05,0.12,0.12,0.06,0.00,-0.02,0.01,0.06,0.10,0.13,0.14,0.14,0.17,0.20,0.23,0.24,0.17,0.02,-0.14,-0.26,-0.26,-0.19,-0.12,-0.04,0.04,0.06,0.11,0.17,0.20,0.24,0.29,0.35,0.26,0.19,0.13,0.10,0.07,0.02,-0.10,-0.17,-0.18,-0.16,-0.12,-0.12,-0.10,-0.06,-0.04,-0.02,-0.02,0.00,0.01,0.00,0.00,0.00,-0.01,-0.02,-0.02,-0.01,-0.01,-0.02,-0.02,0.01,0.05,0.06,0.07,0.10,0.11,0.08,0.05,0.05,0.05,0.05,0.05,0.05,0.05,0.02,0.02,0.04,0.04,0.00,-0.02,-0.02,-0.04,-0.05,-0.04,-0.01,-0.01,-0.01,-0.01,0.00,0.00,-0.04,-0.10,-0.06,0.00,0.02,0.02,0.01,0.00,0.02,0.04,0.04,-0.02,0.00,0.02,0.08,0.25,0.36,0.42,0.44,0.44,0.48,0.55,0.38,0.26,0.18,0.12,0.02,-0.05,-0.05,0.01,0.01,1541131460,-0.08,-0.17,-0.14,-0.11,-0.07,-0.05,-0.05,-0.05,-0.05,-0.04,0.00,0.05,0.10,0.12,0.14,0.17,0.18,0.17,0.17,0.17,0.14,0.12,0.10,0.07,0.06,0.01,0.02,0.05,0.06,0.05,0.04,0.02,0.00,-0.05,-0.08,-0.12,-0.14,-0.19,-0.22,-0.20,-0.17,-0.12,-0.07,-0.04,-0.02,-0.01,0.00,0.02,0.05,0.07,0.12,0.18,0.17,0.11,0.06,0.01,-0.02,-0.04,-0.02,-0.02,-0.04,-0.01,-0.01,0.01,0.06,0.12,0.19,0.18,0.10,0.07,0.13,0.17,0.18,0.19,0.13,0.05,-0.02,-0.01,0.05,0.08,0.12,0.16,0.22,0.28,0.28,0.25,0.20,0.12,0.06,0.04,0.04,0.01,-0.01,-0.01,-0.02,-0.04,-0.07,-0.14,-0.17,-0.14,-0.11,-0.10,-0.08,-0.08,-0.10,-0.04,0.23,0.40,0.26,0.14,0.06,-0.02,-0.04,0.00,0.04,0.10,0.11,0.10,0.07,0.04,-0.01,-0.05,-0.05,-0.04,-0.04,-0.06,-0.06,-0.06,-0.06,0.00,0.06,0.13,0.17,0.13,0.12,0.10,0.10,0.10,0.10,0.10,0.14,0.18,0.18,0.17,0.13,0.10,0.06,0.06,0.06,0.04,0.02,0.01,-0.01,-0.04,-0.06,-0.07,-0.08,-0.07,-0.06,-0.05,-0.06,-0.07,-0.08,-0.05,-0.02,-0.01,0.00,0.02,0.02,-0.01,-0.02,-0.04,-0.02,0.00,0.01,0.04,0.05,0.07,0.10,0.11,1541131461,0.10,0.06,0.05,0.07,0.11,0.13,0.13,0.12,0.12,0.10,0.06,0.04,0.04,0.04,0.06,0.07,0.08,0.10,0.11,0.11,0.11,0.08,0.08,0.08,0.10,0.10,0.06,0.06,0.07,0.08,0.11,0.12,0.12,0.11,0.06,0.04,0.06,0.08,0.06,0.07,0.24,0.40,0.26,0.17,0.02,-0.19,-0.26,-0.17,-0.07,-0.02,0.00,0.02,0.04,0.02,0.04,0.05,0.05,0.06,0.10,0.12,0.07,0.02,0.00,0.05,0.06,0.04,-0.02,-0.01,0.04,0.08,0.06,0.00,0.01,0.07,0.10,0.08,0.10,0.13,0.12,0.07,0.05,0.05,0.00,0.01,0.02,0.02,0.02,-0.01,-0.04,-0.02,-0.02,-0.05,-0.06,0.00,0.05,0.00,-0.06,-0.06,-0.02,-0.01,-0.02,-0.02,0.00,0.04,0.06,0.07,0.07,0.06,0.07,0.06,0.05,0.05,0.06,0.10,0.12,0.11,0.14,0.12,-0.04,-0.12,-0.08,-0.02,0.01,0.06,0.08,0.10,0.10,0.07,0.05,0.05,0.11,0.10,0.01,0.02,0.05,0.08,0.13,0.08,0.02,-0.01,-0.07,-0.08,-0.04,0.02,0.06,0.08,0.07,0.07,0.07,0.10,0.07,0.04,0.04,0.04,0.00,-0.02,0.04,0.20,0.38,0.38,0.23,0.12,-0.07,-0.24,-0.22,-0.13,-0.07,0.01,0.04,0.05,0.04,0.06,0.06,0.00,-0.04,0.00,0.07,0.10,0.06,0.05,1541131462,0.06,0.07,0.07,0.07,0.07,0.08,0.08,0.06,0.06,0.06,0.06,0.06,0.10,0.11,0.10,0.11,0.12,0.12,0.12,0.13,0.12,0.07,0.05,0.02,0.01,0.01,0.00,-0.06,-0.07,-0.06,-0.07,-0.06,-0.05,-0.02,-0.01,0.01,0.02,-0.02,-0.05,-0.06,-0.02,0.01,0.02,0.05,0.06,0.05,0.05,0.05,0.05,0.06,0.05,0.05,0.07,0.07,0.07,0.06,0.07,0.07,0.06,0.05,0.04,0.05,0.06,0.06,0.05,0.02,0.04,0.07,0.08,0.07,0.07,0.07,0.07,0.07,0.06,0.06,0.05,0.05,0.05,0.06,0.06,0.06,0.07,0.07,0.06,0.04,0.01,0.00,0.01,0.05,0.05,0.04,0.05,0.05,0.04,0.04,0.04,0.05,0.04,0.01,0.06,0.24,0.40,0.40,0.22,0.12,-0.08,-0.29,-0.28,-0.18,-0.10,-0.01,0.02,0.06,0.07,0.07,0.07,0.05,0.04,0.05,0.05,0.06,0.06,0.06,0.06,0.06,0.05,0.05,0.06,0.07,0.07,0.06,0.04,0.05,0.06,0.07,0.07,0.08,0.08,0.07,0.08,0.08,0.10,0.10,0.10,0.07,0.05,0.04,0.04,0.01,-0.02,-0.04,-0.04,-0.05,-0.05,-0.05,-0.04,-0.02,-0.02,0.00,0.01,0.02,0.02,0.02,0.05,0.05,0.04,0.05,0.04,0.02,0.02,0.02,0.04,0.05,0.05,0.06,0.06,0.06,0.06,0.05,1541131463,0.05,0.04,0.02,0.05,0.07,0.08,0.07,0.06,0.06,0.04,0.02,0.01,0.02,0.06,0.07,0.07,0.06,0.06,0.06,0.05,0.05,0.04,0.02,0.04,0.05,0.05,0.05,0.05,0.06,0.07,0.06,0.05,0.06,0.06,0.02,0.01,0.02,0.05,0.05,0.05,0.05,0.05,0.02,0.02,0.01,-0.01,-0.01,0.11,0.32,0.49,0.46,0.29,0.16,-0.13,-0.36,-0.32,-0.20,-0.10,-0.01,0.02,0.04,0.05,0.02,0.02,0.04,0.04,0.04,0.05,0.05,0.05,0.04,0.02,0.04,0.04,0.04,0.05,0.06,0.07,0.08,0.08,0.08,0.08,0.10,0.08,0.10,0.10,0.10,0.08,0.08,0.10,0.10,0.08,0.08,0.07,0.05,0.02,0.00,-0.02,-0.04,-0.05,-0.05,-0.05,-0.04,-0.05,-0.04,-0.02,-0.02,-0.01,0.00,0.02,0.02,0.05,0.07,0.07,0.05,0.02,0.02,0.05,0.05,0.05,0.05,0.05,0.05,0.04,0.06,0.06,0.06,0.05,0.06,0.07,0.07,0.07,0.07,0.05,0.05,0.04,0.02,0.02,0.01,0.01,0.02,0.05,0.06,0.05,0.04,0.02,0.05,0.07,0.06,0.05,0.02,0.01,0.04,0.02,0.02,0.02,0.04,0.06,0.07,0.06,0.07,0.07,0.05,0.02,0.02,0.05,0.08,0.12,0.11,0.06,-0.04,-0.06,0.00,0.05,0.07,0.05,0.04,0.05,0.17,0.35,1541131464,0.42,0.31,0.13,0.04,-0.18,-0.31,-0.25,-0.17,-0.08,0.00,0.05,0.07,0.07,0.06,0.05,0.05,0.08,0.10,0.02,-0.01,-0.01,0.02,0.05,0.07,0.08,0.08,0.08,0.08,0.11,0.10,0.10,0.07,0.05,0.05,0.05,0.00,0.00,0.02,0.08,0.11,0.11,0.12,0.08,0.05,0.08,0.10,0.10,0.05,-0.08,-0.11,-0.06,-0.06,-0.12,-0.16,-0.10,-0.02,0.02,0.06,0.07,0.08,0.10,0.11,0.08,0.02,-0.04,0.00,0.00,-0.04,0.00,0.05,0.06,0.06,0.07,0.11,0.12,0.07,0.02,-0.02,0.01,0.07,0.10,0.08,0.05,0.05,0.07,0.05,0.04,0.04,0.02,0.02,0.04,0.06,0.07,0.06,0.08,0.08,0.08,0.10,0.08,0.05,0.06,0.07,0.04,0.02,0.07,0.10,0.07,0.04,0.05,0.10,0.10,0.07,0.04,0.01,-0.01,0.01,0.05,0.04,-0.02,-0.07,-0.07,-0.04,-0.05,-0.07,0.04,0.22,0.38,0.52,0.46,0.35,0.07,-0.30,-0.38,-0.28,-0.16,-0.05,0.02,0.05,0.04,0.04,0.06,0.05,0.04,0.01,0.02,0.04,0.01,-0.02,0.00,0.01,0.01,0.01,0.02,0.04,0.01,0.00,0.04,0.07,0.02,-0.02,-0.04,0.00,0.02,0.07,0.14,0.20,0.20,0.19,0.20,0.22,0.17,0.14,0.13,0.13,0.13,0.11,0.07,-0.02,-0.17,-0.19,1541131464,0.04,0.22,0.20,0.17,0.14,0.16,0.12,0.02,-0.02,-0.07,-0.08,-0.06,0.00,0.04,0.04,0.00,0.04,0.05,0.04,0.05,0.06,0.06,0.02,0.01,0.01,0.04,0.02,-0.01,-0.02,-0.05,-0.02,0.05,0.07,0.11,0.14,0.12,0.11,0.08,0.04,0.02,0.04,0.04,0.00,-0.04,-0.04,-0.04,-0.06,-0.04,0.05,0.07,0.08,0.16,0.22,0.24,0.18,0.07,0.04,0.01,-0.01,0.01,0.07,0.13,0.18,0.20,0.26,0.34,0.29,0.20,0.14,0.11,0.02,-0.26,-0.36,-0.29,-0.20,-0.34,-0.48,-0.46,-0.26,-0.14,-0.07,-0.04,0.00,0.01,0.02,0.04,0.04,0.04,0.04,0.04,0.05,0.14,0.20,0.23,0.24,0.23,0.19,0.16,0.12,0.10,0.10,0.11,0.10,0.08,0.08,0.11,0.08,0.07,0.11,0.13,0.14,0.14,0.17,0.19,0.17,0.14,0.14,0.14,0.11,0.10,0.10,0.05,0.00,-0.02,-0.02,-0.02,-0.06,-0.07,-0.02,0.01,-0.01,-0.02,-0.01,0.00,-0.06,-0.11,-0.06,0.00,-0.01,0.00,0.04,0.05,0.02,0.02,0.08,0.12,0.10,0.07,0.10,0.13,0.11,0.08,0.12,0.14,0.12,0.10,0.12,0.13,0.10,0.06,0.08,0.08,0.02,-0.02,0.02,0.06,0.05,0.02,0.08,0.11,0.06,0.02,0.07,0.08,0.02,0.00,0.06,0.07,0.01,-0.02,1541131465,0.02,0.10,0.05,0.00,0.02,0.05,0.02,0.01,0.06,0.08,0.02,-0.06,-0.04,0.02,0.04,0.02,0.05,0.06,0.05,0.01,0.00,0.00,0.12,0.30,0.46,0.35,0.23,0.08,-0.20,-0.34,-0.24,-0.13,-0.04,0.05,0.01,-0.05,0.00,0.08,0.10,0.07,0.05,0.07,0.06,0.02,0.06,0.13,0.10,0.02,0.04,0.05,0.01,0.00,0.08,0.13,0.02,-0.08,-0.01,0.12,0.13,0.07,0.11,0.13,0.07,0.02,0.08,0.16,0.11,0.07,0.11,0.12,0.06,0.00,0.02,0.02,-0.07,-0.13,-0.08,-0.06,-0.08,-0.11,-0.06,0.02,0.02,-0.04,0.01,0.05,0.01,-0.05,-0.02,0.04,0.01,-0.01,0.02,0.06,0.02,0.00,0.02,0.05,0.04,0.02,0.04,0.07,0.07,0.04,0.04,0.04,0.04,0.02,0.02,0.05,0.02,0.01,0.04,0.05,0.05,0.02,0.04,0.05,0.05,0.04,0.05,0.07,0.05,0.04,0.05,0.07,0.06,0.04,0.04,0.06,0.05,0.02,0.01,0.02,0.02,0.01,0.02,0.05,0.05,0.04,0.07,0.08,0.06,0.04,0.05,0.05,0.02,0.00,0.10,0.31,0.49,0.53,0.36,0.19,-0.10,-0.38,-0.36,-0.20,-0.08,-0.01,0.01,0.04,0.05,0.05,0.05,0.07,0.08,0.08,0.07,0.07,0.07,0.06,0.05,0.06,0.07,0.06,0.06,0.07,0.08,0.07,1541131466,0.08,0.10,0.07,0.05,0.06,0.10,0.08,0.05,0.07,0.11,0.10,0.06,0.08,0.13,0.12,0.06,0.05,0.06,0.04,-0.01,-0.01,0.01,-0.01,-0.06,-0.05,-0.01,0.00,-0.02,0.00,0.06,0.05,0.04,0.04,0.05,0.05,0.01,0.04,0.05,0.02,-0.01,0.01,0.04,0.04,0.01,0.05,0.10,0.10,0.06,0.06,0.08,0.06,0.04,0.05,0.05,0.05,0.04,0.05,0.06,0.05,0.02,0.05,0.06,0.04,0.01,0.04,0.06,0.04,0.04,0.06,0.06,0.02,-0.01,0.02,0.07,0.06,0.02,0.02,0.07,0.05,0.01,0.04,0.10,0.08,0.04,0.06,0.10,0.08,0.02,0.04,0.05,-0.01,-0.01,0.19,0.43,0.47,0.23,0.08,-0.04,-0.26,-0.31,-0.18,-0.06,-0.02,-0.02,0.00,0.04,0.04,0.00,0.02,0.06,0.05,0.02,0.05,0.08,0.06,0.01,0.01,0.05,0.05,0.04,0.06,0.10,0.08,0.07,0.06,0.08,0.07,0.06,0.08,0.10,0.08,0.05,0.06,0.10,0.10,0.07,0.07,0.07,0.05,0.01,0.01,0.02,0.00,-0.05,-0.05,-0.02,-0.04,-0.05,-0.02,0.02,0.00,-0.02,-0.01,0.04,0.04,0.00,0.02,0.06,0.06,0.02,0.02,0.07,0.10,0.08,0.08,0.10,0.08,0.06,0.05,0.07,0.05,0.04,0.05,0.06,0.06,0.02,0.04,0.07,0.06,0.02,1541131467,0.04,0.05,0.05,0.02,0.04,0.07,0.07,0.05,0.05,0.06,0.04,0.01,0.02,0.05,0.06,0.05,0.05,0.06,0.05,0.02,0.02,0.05,0.05,0.04,0.04,0.05,0.05,0.04,0.05,0.05,0.04,0.01,0.01,0.06,0.22,0.42,0.55,0.40,0.26,0.13,-0.22,-0.40,-0.31,-0.19,-0.07,0.00,0.02,0.01,0.02,0.05,0.06,0.05,0.05,0.05,0.06,0.07,0.10,0.12,0.11,0.11,0.12,0.13,0.12,0.10,0.11,0.13,0.11,0.08,0.05,0.00,-0.04,-0.06,-0.07,-0.06,-0.10,-0.16,-0.14,-0.01,0.13,0.22,0.22,0.19,0.17,0.08,0.02,-0.01,-0.02,-0.05,-0.07,-0.06,-0.04,-0.02,-0.02,0.00,0.02,0.02,0.02,0.04,0.05,0.04,0.01,0.02,0.05,0.06,0.05,0.04,0.06,0.08,0.07,0.07,0.08,0.07,0.06,0.05,0.06,0.05,0.05,0.06,0.07,0.07,0.06,0.06,0.06,0.07,0.07,0.07,0.07,0.06,0.04,0.02,0.01,0.01,0.02,0.02,0.04,0.05,0.05,0.06,0.06,0.05,0.05,0.05,0.04,0.01,0.00,0.00,0.01,0.01,0.00,0.01,0.02,0.04,0.02,0.02,0.04,0.06,0.19,0.40,0.53,0.40,0.26,0.12,-0.19,-0.36,-0.30,-0.19,-0.11,-0.07,-0.05,-0.02,0.01,0.04,0.05,0.05,0.05,0.05,0.05,0.07,0.07,0.08,1541131468,0.10,0.11,0.13,0.14,0.12,0.10,0.07,0.06,0.01,0.00,0.00,0.00,0.00,0.00,-0.01,-0.04,-0.06,-0.07,-0.02,0.05,0.13,0.18,0.19,0.19,0.13,0.08,0.06,0.05,0.00,-0.04,-0.02,0.00,0.00,0.00,-0.02,-0.02,0.00,0.02,0.02,0.02,0.04,0.02,0.00,0.00,0.00,0.02,0.08,0.12,0.12,0.11,0.12,0.13,0.13,0.11,0.06,0.00,-0.02,-0.01,-0.04,-0.10,-0.12,-0.13,-0.10,0.01,0.05,0.00,-0.06,0.00,0.08,0.11,0.10,0.08,0.06,0.05,0.05,0.04,0.06,0.07,0.10,0.11,0.13,0.12,0.07,0.05,0.06,0.07,0.06,0.05,0.06,0.05,0.04,0.04,0.02,0.01,0.01,0.07,0.25,0.42,0.48,0.32,0.17,0.01,-0.24,-0.30,-0.20,-0.10,-0.02,0.02,0.05,0.05,0.00,0.00,0.02,0.02,0.01,0.02,0.05,0.06,0.05,0.04,0.04,0.05,0.05,0.05,0.06,0.05,0.07,0.08,0.10,0.06,0.06,0.07,0.08,0.05,0.00,0.04,0.07,0.10,0.11,0.11,0.11,0.08,0.07,0.06,0.06,0.05,0.04,-0.04,-0.06,-0.07,-0.11,-0.08,-0.02,0.04,0.04,0.00,0.00,0.01,0.02,0.06,0.07,0.06,0.02,0.02,0.02,0.04,0.05,0.05,0.05,0.05,0.06,0.05,0.06,0.06,0.06,0.05,0.05,0.07,0.08,0.06,1541131469,0.05,0.04,0.05,0.07,0.06,0.04,0.04,0.05,0.04,0.04,0.04,0.06,0.10,0.07,0.02,0.02,0.04,0.02,0.02,0.01,0.01,0.02,0.05,0.04,0.04,0.05,0.07,0.07,0.06,0.05,0.02,-0.02,0.02,0.20,0.38,0.46,0.26,0.13,-0.01,-0.19,-0.25,-0.17,-0.08,-0.01,0.00,0.01,0.02,0.02,0.05,0.05,0.06,0.05,0.05,0.04,0.02,0.01,0.01,0.01,0.01,0.02,0.02,0.05,0.10,0.13,0.14,0.11,0.10,0.10,0.12,0.14,0.18,0.20,0.17,0.10,0.10,0.11,0.11,0.11,0.07,0.04,0.00,-0.05,-0.07,-0.07,-0.08,-0.08,-0.06,-0.05,-0.05,-0.05,-0.02,0.00,0.01,0.02,0.05,0.07,0.05,0.02,0.02,0.04,0.04,0.05,0.05,0.06,0.07,0.07,0.07,0.07,0.07,0.08,0.08,0.08,0.07,0.05,0.02,0.02,0.02,0.04,0.05,0.06,0.06,0.05,0.04,0.05,0.06,0.06,0.05,0.06,0.07,0.06,0.05,0.05,0.04,0.01,0.00,0.00,0.01,0.00,0.00,0.00,-0.01,-0.01,0.01,0.05,0.06,0.04,0.00,0.04,0.19,0.37,0.46,0.31,0.17,-0.01,-0.25,-0.29,-0.20,-0.12,-0.05,0.00,0.02,0.01,0.01,0.04,0.06,0.07,0.08,0.08,0.05,0.04,0.04,0.05,0.04,0.04,0.02,0.02,0.04,0.05,0.05,0.05,1541131470,0.07,0.10,0.12,0.14,0.14,0.13,0.13,0.12,0.10,0.07,0.06,0.06,0.05,0.04,0.01,0.00,-0.01,-0.04,-0.05,-0.05,-0.05,-0.05,-0.04,-0.02,0.00,0.01,0.01,0.04,0.05,0.05,0.04,0.05,0.05,0.05,0.06,0.07,0.07,0.07,0.06,0.06,0.06,0.07,0.06,0.06,0.06,0.06,0.05,0.05,0.06,0.05,0.05,0.06,0.05,0.06,0.06,0.07,0.06,0.05,0.06,0.05,0.05,0.02,0.02,0.04,0.05,0.06,0.06,0.06,0.06,0.04,0.02,0.04,0.05,0.05,0.05,0.05,0.05,0.05,0.02,0.02,0.02,0.02,0.01,0.00,0.08,0.26,0.44,0.47,0.31,0.16,-0.14,-0.37,-0.32,-0.22,-0.10,-0.01,0.02,0.04,0.02,0.04,0.04,0.05,0.05,0.06,0.07,0.06,0.05,0.07,0.08,0.07,0.05,0.05,0.05,0.05,0.05,0.06,0.07,0.07,0.08,0.10,0.10,0.07,0.07,0.08,0.10,0.07,0.06,0.06,0.06,0.02,0.00,0.01,0.01,0.00,-0.04,-0.02,-0.02,-0.04,-0.04,-0.02,0.00,-0.01,-0.02,-0.01,0.01,0.01,0.00,0.01,0.02,0.02,0.02,0.02,0.05,0.04,0.04,0.06,0.07,0.07,0.06,0.06,0.06,0.05,0.05,0.06,0.07,0.07,0.06,0.07,0.08,0.07,0.06,0.06,0.05,0.04,0.04,0.05,0.04,0.04,0.05,0.08,1541131471,0.11,0.10,0.08,0.06,0.05,0.06,0.08,0.11,0.11,0.10,0.08,0.08,0.08,0.08,0.10,0.07,0.04,0.01,0.01,0.01,0.00,0.06,0.25,0.43,0.37,0.24,0.14,-0.11,-0.35,-0.32,-0.19,-0.10,-0.02,0.00,0.00,0.00,0.01,0.01,0.02,0.05,0.05,0.05,0.04,0.04,0.05,0.06,0.05,0.05,0.05,0.05,0.05,0.06,0.06,0.06,0.05,0.06,0.06,0.06,0.06,0.06,0.06,0.06,0.07,0.07,0.07,0.07,0.07,0.06,0.04,0.01,0.00,-0.02,-0.04,-0.05,-0.05,-0.05,-0.02,-0.01,0.00,0.02,0.02,0.02,0.02,0.02,0.02,0.02,0.02,0.05,0.07,0.07,0.07,0.07,0.08,0.08,0.08,0.08,0.07,0.06,0.06,0.08,0.10,0.07,0.05,0.02,0.02,0.04,0.04,0.02,0.00,0.00,0.00,0.02,0.04,0.04,0.02,0.05,0.08,0.11,0.12,0.12,0.11,0.11,0.10,0.08,0.05,0.00,0.00,0.00,0.00,0.00,-0.01,0.00,0.00,0.00,0.01,0.02,0.06,0.16,0.30,0.40,0.29,0.11,0.00,-0.18,-0.25,-0.17,-0.08,-0.01,0.02,0.02,0.02,0.02,0.02,0.01,-0.01,-0.01,0.00,0.00,-0.01,-0.01,0.01,0.05,0.08,0.08,0.08,0.10,0.11,0.11,0.10,0.11,0.14,0.19,0.19,0.14,0.11,0.11,0.10,0.08,0.07,0.07,1541131472,0.08,0.08,0.08,0.07,0.05,0.02,-0.01,-0.04,-0.05,-0.06,-0.06,-0.06,-0.06,-0.06,-0.05,-0.04,-0.01,0.00,0.02,0.05,0.07,0.10,0.11,0.12,0.12,0.11,0.08,0.05,0.04,0.02,0.00,0.00,0.00,0.04,0.06,0.08,0.10,0.10,0.07,0.06,0.05,0.06,0.05,0.00,-0.01,-0.01,0.00,0.00,0.00,0.02,0.04,0.05,0.05,0.02,0.01,0.02,0.02,0.02,0.05,0.07,0.10,0.07,0.10,0.14,0.06,-0.01,-0.02,-0.02,0.01,0.05,0.08,0.16,0.30,0.42,0.32,0.13,0.01,-0.16,-0.25,-0.19,-0.12,-0.06,-0.02,0.01,0.05,0.02,0.00,-0.01,-0.01,0.00,0.02,0.05,0.07,0.10,0.10,0.10,0.10,0.10,0.08,0.06,0.07,0.08,0.10,0.10,0.11,0.12,0.11,0.10,0.08,0.07,0.08,0.10,0.12,0.14,0.16,0.14,0.10,0.05,0.00,-0.02,-0.04,-0.05,-0.06,-0.07,-0.07,-0.07,-0.07,-0.11,-0.17,-0.18,-0.13,-0.06,0.02,0.12,0.28,0.34,0.25,0.11,-0.01,-0.13,-0.18,-0.13,-0.06,-0.05,0.01,0.11,0.11,0.08,0.07,0.08,0.10,0.10,0.10,0.10,0.11,0.11,0.12,0.16,0.14,0.08,0.01,0.01,0.06,0.08,0.05,0.04,0.05,0.06,0.06,0.05,0.02,0.01,0.00,-0.02,-0.02,-0.01,0.01,0.05,0.10,0.04,1541131473,-0.05,-0.05,-0.01,0.04,0.06,0.11,0.25,0.38,0.38,0.19,0.05,-0.11,-0.25,-0.22,-0.12,-0.02,0.04,0.07,0.06,0.05,0.05,0.07,0.05,0.04,0.02,0.02,0.02,0.05,0.08,0.07,0.05,0.04,0.05,0.07,0.07,0.06,0.10,0.10,0.05,0.02,0.02,0.05,0.06,0.07,0.10,0.10,0.10,0.08,0.07,0.07,0.07,0.07,0.06,0.05,0.01,-0.01,-0.02,-0.04,-0.06,-0.06,-0.05,-0.02,0.00,0.02,0.02,0.04,0.04,0.04,0.04,0.04,0.05,0.05,0.05,0.05,0.05,0.06,0.06,0.04,0.04,0.04,0.04,0.05,0.05,0.06,0.05,0.06,0.05,0.05,0.04,0.04,0.04,0.05,0.05,0.06,0.06,0.06,0.06,0.07,0.07,0.05,0.04,0.05,0.05,0.06,0.06,0.05,0.02,0.01,0.02,0.05,0.05,0.05,0.05,0.05,0.04,0.05,0.06,0.05,0.02,0.01,0.11,0.31,0.47,0.40,0.25,0.07,-0.24,-0.36,-0.25,-0.12,-0.04,0.00,0.02,0.04,0.04,0.04,0.05,0.06,0.06,0.06,0.05,0.05,0.05,0.05,0.07,0.07,0.05,0.04,0.05,0.05,0.06,0.07,0.07,0.08,0.08,0.07,0.08,0.10,0.11,0.08,0.07,0.07,0.07,0.07,0.06,0.06,0.05,0.04,0.02,0.01,-0.02,-0.04,-0.05,-0.05,-0.05,-0.05,-0.04,-0.01,0.00,0.00,1541131474,0.01,0.04,0.04,0.04,0.04,0.04,0.04,0.05,0.05,0.05,0.05,0.05,0.05,0.05,0.04,0.04,0.04,0.05,0.05,0.05,0.06,0.05,0.05,0.04,0.04,0.04,0.04,0.05,0.05,0.05,0.04,0.04,0.04,0.04,0.05,0.05,0.07,0.07,0.06,0.05,0.06,0.06,0.05,0.05,0.05,0.05,0.05,0.04,0.02,0.04,0.04,0.05,0.05,0.04,0.01,0.06,0.23,0.42,0.47,0.34,0.18,-0.12,-0.35,-0.29,-0.16,-0.05,0.01,0.02,0.02,0.02,0.02,0.05,0.06,0.05,0.05,0.05,0.05,0.06,0.06,0.06,0.07,0.06,0.04,0.04,0.05,0.07,0.07,0.07,0.08,0.08,0.08,0.08,0.10,0.10,0.07,0.06,0.06,0.07,0.06,0.06,0.06,0.07,0.06,0.04,0.02,0.00,-0.01,-0.02,-0.02,-0.01,-0.04,-0.05,-0.04,-0.02,0.00,0.00,0.02,0.02,0.04,0.04,0.05,0.05,0.05,0.05,0.06,0.05,0.05,0.05,0.06,0.07,0.08,0.06,0.06,0.06,0.05,0.05,0.04,0.04,0.02,0.02,0.04,0.01,0.02,0.08,0.08,0.06,0.05,0.04,0.04,0.05,0.05,0.04,0.05,0.05,0.06,0.05,0.05,0.04,0.02,0.04,0.05,0.06,0.05,0.04,0.02,0.02,0.05,0.05,0.02,0.07,0.24,0.42,0.43,0.26,0.12,-0.11,-0.29,-0.26,-0.16,-0.07,1541131474,-0.01,0.00,-0.02,0.01,0.06,0.06,0.06,0.06,0.05,0.04,0.05,0.05,0.05,0.04,0.05,0.06,0.06,0.06,0.06,0.07,0.07,0.08,0.07,0.08,0.08,0.07,0.08,0.11,0.12,0.10,0.08,0.08,0.08,0.10,0.08,0.06,0.05,0.05,0.02,-0.01,-0.04,-0.05,-0.05,-0.04,-0.05,-0.04,-0.02,-0.04,-0.02,0.00,0.02,0.02,0.02,0.02,0.02,0.02,0.02,0.02,0.04,0.05,0.05,0.04,0.05,0.05,0.06,0.05,0.02,0.04,0.06,0.07,0.05,0.04,0.02,0.04,0.02,0.05,0.04,0.02,0.04,0.04,0.02,0.02,0.05,0.05,0.04,0.05,0.07,0.06,0.05,0.04,0.04,0.04,0.04,0.05,0.05,0.04,0.04,0.04,0.05,0.05,0.05,0.04,0.11,0.30,0.48,0.48,0.34,0.17,-0.14,-0.35,-0.29,-0.16,-0.06,0.01,0.02,0.05,0.04,0.04,0.02,0.02,0.00,0.00,-0.01,0.00,0.01,0.02,0.04,0.06,0.07,0.07,0.08,0.11,0.12,0.14,0.16,0.17,0.14,0.12,0.10,0.07,0.04,0.02,0.06,0.08,0.07,0.02,-0.02,-0.02,-0.02,-0.04,-0.01,0.02,0.02,0.00,-0.04,-0.06,-0.06,-0.04,-0.01,-0.04,-0.06,-0.06,-0.01,0.02,0.05,0.05,0.06,0.06,0.06,0.05,0.05,0.05,0.06,0.05,0.06,0.08,0.08,0.05,0.01,0.01,1541131475,0.04,0.07,0.08,0.07,0.02,0.02,0.02,0.06,0.12,0.13,0.06,0.01,0.00,0.01,0.05,0.06,0.07,0.08,0.10,0.10,0.08,0.08,0.08,0.08,0.10,0.08,0.05,0.05,0.05,0.05,0.01,-0.02,0.00,0.02,0.04,0.01,0.00,0.08,0.29,0.48,0.49,0.32,0.20,-0.11,-0.37,-0.34,-0.24,-0.18,-0.10,-0.04,0.01,0.04,0.05,0.06,0.07,0.07,0.06,0.06,0.05,0.04,0.05,0.07,0.13,0.12,0.07,0.01,0.01,0.04,0.06,0.07,0.07,0.07,0.07,0.08,0.08,0.10,0.11,0.11,0.10,0.08,0.07,0.08,0.08,0.07,0.04,0.02,-0.04,-0.07,-0.06,-0.05,-0.05,-0.07,-0.08,-0.06,-0.04,0.00,0.02,0.04,0.04,0.05,0.07,0.07,0.02,0.00,0.05,0.06,0.05,0.01,0.02,0.04,0.05,0.06,0.06,0.06,0.06,0.06,0.06,0.05,0.05,0.05,0.06,0.07,0.06,0.02,0.02,0.04,0.05,0.05,0.06,0.07,0.07,0.05,0.05,0.06,0.10,0.08,0.04,0.00,-0.01,0.02,0.04,0.05,0.06,0.06,0.05,0.05,0.05,0.01,0.00,0.01,0.02,0.05,0.17,0.34,0.44,0.32,0.17,-0.01,-0.24,-0.28,-0.17,-0.08,-0.01,0.02,0.04,0.04,0.02,0.02,0.04,0.05,0.05,0.06,0.06,0.05,0.05,0.04,0.04,0.02,0.02,0.04,1541131476,0.05,0.05,0.06,0.07,0.07,0.07,0.07,0.07,0.07,0.07,0.07,0.08,0.08,0.10,0.11,0.11,0.10,0.07,0.06,0.05,0.05,0.04,0.04,0.02,0.00,-0.02,-0.04,-0.07,-0.07,-0.06,-0.05,-0.02,0.00,0.01,0.02,0.02,0.04,0.05,0.05,0.05,0.05,0.05,0.05,0.06,0.06,0.05,0.05,0.05,0.05,0.06,0.06,0.06,0.06,0.06,0.06,0.05,0.05,0.05,0.05,0.06,0.06,0.06,0.04,0.04,0.04,0.04,0.05,0.05,0.06,0.07,0.06,0.05,0.05,0.04,0.04,0.04,0.02,0.01,0.02,0.02,0.02,0.02,0.04,0.06,0.07,0.06,0.04,0.07,0.26,0.46,0.50,0.34,0.22,0.00,-0.32,-0.36,-0.24,-0.11,-0.02,0.00,0.01,0.01,0.02,0.02,0.04,0.05,0.05,0.05,0.04,0.05,0.05,0.05,0.05,0.05,0.05,0.06,0.07,0.07,0.07,0.07,0.07,0.07,0.08,0.08,0.08,0.10,0.10,0.11,0.12,0.13,0.13,0.12,0.10,0.05,0.01,-0.02,-0.05,-0.05,-0.04,-0.02,0.00,0.00,0.01,0.05,0.07,0.05,-0.01,-0.06,-0.08,-0.07,-0.06,-0.04,-0.04,-0.04,-0.02,-0.02,-0.01,0.01,0.00,0.00,-0.01,-0.02,0.00,0.07,0.20,0.25,0.22,0.13,0.08,0.10,0.11,0.10,0.06,0.01,-0.02,-0.05,-0.05,-0.02,0.01,0.06,1541131477,0.08,0.08,0.07,0.05,0.04,0.04,0.06,0.11,0.12,0.11,0.08,0.07,0.06,0.05,0.04,0.04,0.04,0.02,0.01,0.02,0.04,0.04,0.02,0.04,0.02,0.00,-0.01,0.08,0.30,0.50,0.50,0.34,0.19,-0.16,-0.44,-0.38,-0.24,-0.08,-0.01,0.01,0.02,0.04,0.04,0.05,0.06,0.06,0.06,0.06,0.06,0.06,0.06,0.06,0.07,0.06,0.07,0.08,0.07,0.07,0.07,0.07,0.07,0.07,0.08,0.08,0.07,0.08,0.10,0.08,0.08,0.08,0.07,0.06,0.06,0.05,0.05,0.04,0.01,-0.01,-0.04,-0.05,-0.05,-0.04,-0.02,-0.01,-0.01,0.00,0.00,-0.01,-0.01,0.01,0.02,0.00,-0.02,0.01,0.07,0.11,0.12,0.11,0.06,0.05,0.05,0.04,0.02,0.02,0.01,0.00,0.02,0.05,0.06,0.05,0.04,0.05,0.11,0.13,0.11,0.07,0.05,0.04,0.04,0.04,0.02,0.01,0.00,-0.01,0.01,0.04,0.05,0.02,0.01,0.00,0.01,0.05,0.07,0.08,0.07,0.07,0.06,0.06,0.05,0.05,0.06,0.06,0.07,0.06,0.07,0.06,0.06,0.06,0.05,0.05,0.11,0.29,0.44,0.40,0.23,0.07,-0.12,-0.26,-0.22,-0.12,-0.05,0.00,0.02,0.05,0.04,0.02,0.02,0.01,0.01,0.01,0.02,0.06,0.08,0.07,0.06,0.05,0.05,0.05,0.06,0.06,1541131478,0.06,0.05,0.06,0.06,0.05,0.06,0.10,0.13,0.12,0.11,0.10,0.10,0.10,0.10,0.07,0.06,0.06,0.04,0.02,0.00,-0.02,-0.06,-0.07,-0.05,-0.04,-0.02,-0.02,-0.01,0.00,0.01,0.02,0.02,0.02,0.02,0.04,0.02,0.02,0.04,0.05,0.05,0.05,0.05,0.06,0.05,0.05,0.05,0.05,0.06,0.06,0.06,0.06,0.06,0.06,0.06,0.07,0.08,0.10,0.10,0.06,0.01,-0.01,-0.01,-0.01,0.01,0.02,0.05,0.08,0.11,0.12,0.11,0.11,0.12,0.11,0.10,0.10,0.10,0.07,0.02,-0.05,-0.14,-0.19,-0.20,-0.19,-0.13,-0.02,0.08,0.12,0.11,0.07,0.06,0.10,0.25,0.48,0.65,0.47,0.30,0.10,-0.24,-0.43,-0.38,-0.25,-0.11,-0.01,0.01,0.04,0.05,0.06,0.07,0.07,0.08,0.08,0.10,0.11,0.11,0.11,0.10,0.10,0.08,0.08,0.08,0.08,0.10,0.11,0.10,0.08,0.07,0.06,0.05,0.04,0.05,0.05,0.05,0.05,0.05,0.05,0.05,0.05,0.06,0.05,0.04,0.01,-0.01,-0.04,-0.05,-0.06,-0.06,-0.05,-0.05,-0.04,-0.02,-0.01,0.01,0.01,0.02,0.02,0.05,0.04,0.05,0.05,0.06,0.06,0.05,0.05,0.06,0.06,0.06,0.06,0.05,0.06,0.06,0.05,0.05,0.05,0.05,0.05,0.06,0.06,0.05,0.05,0.05,1541131479,0.05,0.04,0.05,0.05,0.05,0.05,0.05,0.02,0.01,0.01,0.02,0.04,0.04,0.04,0.05,0.07,0.06,0.04,0.05,0.06,0.06,0.05,0.05,0.06,0.04,0.00,0.00,0.02,0.04,0.04,0.02,0.04,0.06,0.16,0.32,0.43,0.36,0.17,0.01,-0.17,-0.29,-0.24,-0.13,-0.06,-0.01,0.00,0.01,0.02,0.04,0.06,0.07,0.06,0.06,0.07,0.07,0.06,0.06,0.06,0.05,0.06,0.07,0.07,0.08,0.08,0.08,0.07,0.10,0.10,0.11,0.10,0.10,0.08,0.07,0.07,0.07,0.08,0.08,0.08,0.06,0.05,0.04,0.04,0.02,0.01,0.00,-0.02,-0.04,-0.04,-0.04,-0.02,0.00,0.00,0.01,0.02,0.02,0.02,0.01,0.02,0.02,0.02,0.02,0.02,0.01,0.01,0.01,0.01,0.02,0.04,0.05,0.06,0.06,0.06,0.06,0.07,0.07,0.06,0.05,0.05,0.05,0.05,0.05,0.05,0.04,0.04,0.06,0.05,0.05,0.05,0.04,0.04,0.06,0.06,0.05,0.04,0.04,0.04,0.05,0.05,0.07,0.06,0.05,0.06,0.06,0.05,0.05,0.04,0.04,0.04,0.05,0.05,0.06,0.07,0.07,0.08,0.08,0.07,0.04,0.10,0.25,0.40,0.40,0.22,0.07,-0.17,-0.40,-0.36,-0.24,-0.12,-0.05,-0.01,0.02,0.06,0.11,0.11,0.08,0.07,0.07,0.07,0.08,0.07,1541131480,0.05,0.04,0.01,-0.01,-0.01,0.01,0.04,0.07,0.10,0.12,0.13,0.14,0.13,0.12,0.10,0.07,0.07,0.07,0.07,0.06,0.06,0.08,0.11,0.13,0.16,0.17,0.16,0.12,0.06,0.00,-0.06,-0.10,-0.11,-0.12,-0.11,-0.10,-0.07,-0.05,-0.01,0.00,0.04,0.05,0.06,0.05,0.05,0.04,0.04,0.02,0.02,0.02,0.04,0.04,0.04,0.04,0.05,0.07,0.06,0.05,0.04,0.04,0.04,0.02,0.04,0.05,0.04,0.02,0.02,0.04,0.06,0.08,0.08,0.08,0.07,0.06,0.07,0.07,0.06,0.06,0.05,0.02,0.01,0.04,0.08,0.11,0.25,0.18,-0.02,-0.18,-0.16,-0.10,-0.06,-0.04,-0.02,-0.02,-0.01,0.01,0.01,0.00,0.04,0.06,0.07,0.10,0.12,0.11,0.07,0.07,0.06,0.06,0.17,0.40,0.58,0.49,0.32,0.22,-0.06,-0.35,-0.34,-0.20,-0.10,-0.04,-0.01,0.01,0.02,0.04,0.05,0.05,0.05,0.05,0.05,0.06,0.05,0.02,0.02,0.04,0.06,0.07,0.08,0.10,0.10,0.07,0.07,0.07,0.08,0.08,0.08,0.08,0.10,0.08,0.08,0.08,0.07,0.06,0.05,0.04,0.05,0.06,0.06,0.05,0.02,-0.04,-0.10,-0.16,-0.17,-0.13,-0.08,-0.02,0.01,0.05,0.06,0.12,0.24,0.26,0.18,0.06,-0.04,-0.08,-0.12,-0.10,-0.10,-0.11,1541131481,-0.12,-0.14,-0.17,-0.13,-0.05,0.05,0.16,0.26,0.32,0.29,0.20,0.12,0.06,0.08,0.16,0.19,0.11,0.02,-0.02,-0.05,-0.04,-0.01,-0.01,-0.01,0.01,0.02,0.06,0.10,0.11,0.11,0.10,0.07,0.06,0.05,0.04,0.04,0.04,0.04,0.02,0.04,0.06,0.07,0.06,0.06,0.06,0.06,0.06,0.05,0.06,0.07,0.06,0.00,-0.04,-0.06,-0.04,-0.01,0.01,0.05,0.06,0.05,0.02,0.06,0.20,0.37,0.42,0.26,0.11,-0.07,-0.28,-0.25,-0.12,-0.06,0.00,0.06,0.11,0.29,0.38,0.19,-0.06,-0.14,-0.11,-0.06,-0.05,-0.05,-0.06,-0.06,-0.05,0.00,0.02,0.04,0.01,0.02,0.02,0.05,0.10,0.16,0.19,0.22,0.20,0.19,0.14,0.13,0.12,0.11,0.10,0.08,0.06,0.04,0.00,-0.02,-0.01,0.00,-0.01,-0.04,-0.04,-0.05,-0.05,-0.04,-0.04,-0.01,-0.01,0.00,0.01,0.01,0.04,0.04,0.04,0.04,0.04,0.04,0.04,0.04,0.04,0.04,0.04,0.05,0.05,0.05,0.06,0.07,0.06,0.06,0.06,0.06,0.05,0.02,0.04,0.05,0.04,0.04,0.04,0.05,0.05,0.05,0.05,0.04,0.02,0.01,0.02,0.04,0.05,0.06,0.06,0.06,0.07,0.07,0.05,0.05,0.07,0.08,0.11,0.11,0.11,0.13,0.14,0.10,0.07,0.06,0.06,0.05,1541131482,0.04,0.06,0.07,0.05,0.01,-0.02,-0.06,-0.07,-0.10,-0.02,0.12,0.23,0.13,0.05,0.02,-0.08,-0.12,-0.08,-0.05,0.00,0.06,0.12,0.12,0.10,0.10,0.10,0.02,0.01,0.07,0.13,0.19,0.20,0.18,0.13,0.08,0.05,0.04,0.01,-0.01,-0.01,0.00,0.02,0.05,0.06,0.10,0.11,0.11,0.07,0.10,0.10,0.07,0.05,0.04,0.04,0.04,0.05,0.04,0.00,-0.04,-0.04,-0.06,-0.07,-0.06,-0.04,-0.02,-0.01,-0.04,-0.07,-0.07,-0.02,0.01,0.05,0.06,0.04,0.02,0.05,0.06,0.06,0.06,0.06,0.06,0.04,0.02,0.01,-0.01,-0.04,-0.02,0.02,0.11,0.19,0.35,0.26,0.07,-0.07,-0.11,-0.07,-0.06,-0.02,0.01,0.05,0.05,0.02,0.02,0.02,0.05,0.05,0.04,0.02,0.04,0.05,0.06,0.07,0.11,0.11,0.10,0.07,0.05,0.05,0.05,0.02,0.00,0.00,0.02,0.04,0.06,0.06,0.07,0.07,0.08,0.08,0.08,0.07,0.07,0.07,0.06,0.06,0.05,0.05,0.05,0.12,0.31,0.49,0.42,0.29,0.19,0.02,-0.32,-0.35,-0.22,-0.11,-0.05,-0.04,-0.02,0.02,0.06,0.07,0.08,0.07,0.05,0.02,0.02,0.04,0.04,0.01,0.00,-0.02,-0.02,0.00,0.05,0.07,0.07,0.08,0.10,0.11,0.12,0.12,0.12,0.13,0.13,0.12,1541131483,0.11,0.11,0.11,0.10,0.04,-0.04,-0.07,-0.05,0.01,0.07,0.04,-0.08,-0.17,-0.19,-0.16,-0.05,0.04,0.06,0.05,0.06,0.05,0.05,0.07,0.10,0.08,0.05,0.05,0.08,0.07,0.02,-0.02,-0.02,-0.02,0.00,0.01,0.01,0.04,0.06,0.06,0.05,0.06,0.07,0.10,0.11,0.10,0.08,0.07,0.06,0.05,0.04,0.02,0.04,0.05,0.05,0.04,0.04,0.05,0.04,0.05,0.05,0.07,0.10,0.12,0.12,0.04,-0.01,-0.01,0.01,0.02,0.02,0.04,0.05,0.05,0.04,0.02,0.02,0.01,0.00,0.01,0.00,0.02,0.04,0.02,0.00,0.00,0.01,0.06,0.24,0.43,0.26,0.02,0.00,0.17,0.31,0.23,0.07,-0.05,-0.24,-0.29,-0.18,-0.07,-0.02,0.01,0.05,0.08,0.07,0.07,0.06,0.05,0.04,0.06,0.08,0.10,0.07,0.05,0.02,0.00,-0.01,0.00,0.00,0.00,-0.01,0.00,0.02,0.06,0.08,0.10,0.10,0.11,0.11,0.11,0.11,0.11,0.10,0.10,0.10,0.11,0.11,0.08,0.07,0.06,0.05,0.01,0.00,-0.01,-0.01,-0.01,-0.01,-0.01,0.00,0.00,0.01,0.00,-0.01,-0.02,-0.02,-0.01,-0.01,0.01,0.02,0.06,0.08,0.07,0.06,0.06,0.06,0.05,0.05,0.06,0.05,0.04,0.02,0.02,0.02,0.01,0.01,0.01,0.04,0.07,0.10,1541131483,0.10,0.07,0.07,0.02,0.00,0.00,0.02,0.06,0.08,0.10,0.10,0.10,0.08,0.04,0.00,-0.01,0.02,0.05,0.07,0.07,0.06,0.05,0.02,-0.02,-0.06,-0.07,-0.05,0.02,0.07,0.07,0.10,0.13,0.14,0.10,0.04,-0.02,-0.05,0.00,0.11,0.20,0.25,0.23,0.14,0.13,0.22,0.31,0.31,0.24,0.16,-0.10,-0.31,-0.24,-0.14,-0.08,-0.06,-0.04,0.00,0.04,0.04,0.04,0.04,0.06,0.06,0.05,0.01,0.02,0.05,0.06,0.05,0.06,0.07,0.07,0.05,0.01,0.00,0.01,0.02,0.04,0.04,0.04,0.05,0.07,0.08,0.08,0.10,0.11,0.11,0.11,0.10,0.10,0.08,0.06,0.05,0.04,0.01,-0.01,-0.02,-0.01,0.00,0.00,0.00,0.00,-0.01,-0.04,-0.06,-0.07,-0.10,-0.10,-0.11,-0.12,-0.08,-0.04,0.02,0.07,0.11,0.12,0.17,0.19,0.17,0.36,0.42,0.04,-0.24,-0.22,-0.18,-0.12,-0.05,-0.01,0.01,0.06,0.08,0.11,0.12,0.11,0.07,0.02,0.01,0.04,0.08,0.10,0.10,0.08,0.10,0.11,0.08,0.02,-0.01,0.00,0.04,0.07,0.08,0.07,0.08,0.10,0.08,0.07,0.06,0.04,0.04,0.06,0.08,0.10,0.08,0.08,0.06,0.06,0.07,0.08,0.10,0.11,0.13,0.14,0.13,0.08,0.01,0.04,0.19,0.35,0.31,0.18,1541131484,0.08,-0.16,-0.41,-0.38,-0.24,-0.08,0.00,0.02,0.05,0.07,0.08,0.08,0.05,0.01,-0.01,0.00,0.01,0.02,0.06,0.08,0.10,0.12,0.13,0.14,0.16,0.13,0.11,0.08,0.06,0.06,0.05,0.01,0.01,0.04,0.02,0.00,0.02,0.07,0.14,0.18,0.14,0.07,-0.07,-0.13,-0.12,-0.06,-0.01,0.01,0.02,0.02,-0.01,-0.07,0.00,0.10,0.14,0.12,0.08,0.06,0.04,0.01,0.02,0.00,-0.02,-0.05,-0.02,0.02,0.08,0.07,0.06,0.04,0.04,0.05,0.05,0.04,0.04,0.05,0.02,-0.02,0.02,0.11,0.17,0.13,0.07,0.05,0.05,0.04,0.02,0.01,0.01,0.00,0.00,-0.04,-0.07,-0.04,-0.01,0.02,0.07,0.07,0.07,0.08,0.06,0.04,0.08,0.14,0.16,0.14,0.11,0.07,0.06,0.06,0.02,-0.04,-0.08,-0.12,-0.13,-0.13,-0.13,-0.13,-0.16,-0.08,0.00,0.02,0.06,0.08,0.10,0.10,0.17,0.35,0.56,0.72,0.53,0.35,0.24,0.13,-0.18,-0.25,-0.07,0.10,0.14,0.10,0.04,0.01,0.00,0.13,0.24,0.05,-0.14,-0.20,-0.22,-0.19,-0.11,-0.04,-0.04,-0.08,-0.13,-0.12,-0.11,-0.10,-0.10,-0.04,0.00,0.01,0.01,0.08,0.22,0.25,0.20,0.17,0.19,0.22,0.24,0.25,0.25,0.23,0.20,0.17,0.12,0.10,0.07,0.05,1541131485,0.04,0.00,-0.04,-0.07,-0.11,-0.14,-0.19,-0.24,-0.26,-0.28,-0.29,-0.28,-0.19,-0.11,0.04,0.14,0.35,0.50,0.48,0.11,-0.31,-0.40,-0.06,0.29,0.34,0.20,0.13,0.10,-0.02,-0.08,-0.01,0.04,0.06,0.04,0.07,0.13,0.17,0.12,0.05,-0.01,-0.05,-0.07,-0.12,-0.06,0.00,0.05,0.07,0.07,0.06,0.02,0.05,0.07,0.13,0.20,0.18,0.10,0.13,0.13,0.10,0.10,0.10,0.05,-0.01,-0.02,0.00,0.05,0.12,0.20,0.24,0.22,0.14,0.10,0.07,0.06,0.01,-0.05,-0.01,0.04,0.01,0.00,0.04,0.12,0.26,0.40,0.30,0.19,0.13,-0.05,-0.30,-0.31,-0.20,-0.12,-0.07,-0.02,-0.04,0.00,0.01,-0.04,-0.07,-0.02,0.02,0.07,0.07,0.08,0.05,0.04,0.06,0.06,0.05,0.05,0.01,0.00,-0.01,0.00,-0.02,-0.04,-0.04,-0.01,0.10,0.30,0.24,0.13,0.07,0.04,0.02,0.04,0.11,0.10,0.02,0.04,0.05,0.05,0.05,0.04,0.02,0.04,0.08,0.11,0.10,0.07,0.06,0.04,-0.04,-0.07,-0.02,0.06,0.07,0.06,0.04,0.00,-0.02,-0.04,-0.01,0.06,0.07,0.06,0.08,0.06,0.02,-0.01,-0.02,-0.04,-0.06,-0.11,0.00,0.14,0.16,0.06,0.01,0.05,0.11,0.13,0.12,0.07,0.04,0.02,0.02,0.01,0.00,0.00,1541131486,0.01,0.06,0.08,0.06,0.04,0.10,0.11,0.10,0.11,0.11,0.10,0.11,0.14,0.14,0.10,0.02,-0.02,-0.01,0.04,0.10,0.16,0.07,-0.10,-0.24,-0.30,-0.30,-0.11,0.11,0.24,0.36,0.52,0.53,0.32,0.13,-0.04,-0.29,-0.32,-0.13,0.05,0.16,0.13,0.10,0.07,0.10,0.17,0.17,0.12,0.16,0.18,0.14,0.07,-0.04,-0.24,-0.32,-0.26,-0.17,-0.17,-0.19,-0.17,-0.11,0.19,0.55,0.65,0.49,0.35,0.28,0.20,0.14,0.11,0.10,0.07,0.06,-0.01,-0.12,-0.18,-0.18,-0.17,-0.17,-0.14,-0.13,-0.13,-0.14,-0.08,-0.01,0.05,0.07,0.07,0.05,-0.01,-0.04,-0.04,0.00,0.05,0.10,0.10,0.08,0.02,-0.01,-0.06,-0.06,-0.05,-0.02,0.00,0.01,0.05,0.02,0.01,0.01,0.07,0.14,0.18,0.19,0.14,0.12,0.13,0.13,0.07,0.02,0.02,0.02,0.00,-0.01,-0.01,0.04,0.06,0.06,0.04,0.01,0.02,0.11,0.11,0.06,-0.01,-0.06,-0.06,-0.01,0.05,0.07,0.05,0.05,0.05,0.01,0.02,0.06,0.11,0.10,0.07,0.05,0.08,0.12,0.16,0.14,0.12,0.08,0.05,0.22,0.40,0.50,0.34,0.22,0.12,-0.16,-0.38,-0.32,-0.17,-0.01,0.04,0.04,0.00,-0.05,-0.06,-0.12,-0.07,0.01,0.10,0.07,0.05,0.06,0.05,0.05,1541131487,0.06,0.08,0.17,0.14,0.10,0.08,0.08,0.07,0.07,0.08,0.10,0.07,0.12,0.13,0.10,0.07,0.13,0.16,0.12,0.02,0.02,0.05,0.04,-0.01,-0.04,-0.05,-0.05,-0.05,-0.04,-0.02,0.00,0.02,0.01,0.02,0.02,0.07,0.07,0.08,0.07,0.05,0.05,0.04,0.02,0.02,0.05,0.07,0.07,0.04,0.02,0.04,0.04,0.02,0.05,0.08,0.08,0.07,0.02,0.02,0.02,0.02,0.01,-0.02,-0.02,0.01,0.04,0.04,0.00,0.01,0.05,0.04,0.01,0.00,0.00,0.00,-0.04,-0.01,0.04,0.05,0.04,0.04,0.06,0.06,0.06,0.05,0.07,0.10,0.11,0.13,0.13,0.11,0.11,0.07,0.02,0.04,0.06,0.08,0.10,0.07,0.07,0.12,0.14,0.17,0.18,0.22,0.31,0.24,0.17,0.05,-0.14,-0.32,-0.41,-0.26,-0.06,0.00,-0.01,-0.01,0.01,0.02,0.07,0.12,0.17,0.20,0.18,0.13,0.08,0.04,0.01,-0.01,-0.01,-0.02,0.02,0.06,0.05,0.02,0.02,0.00,-0.01,0.00,0.02,0.06,0.08,0.10,0.10,0.08,0.08,0.08,0.07,0.07,0.06,0.01,0.05,0.07,0.08,0.07,0.01,-0.01,-0.02,-0.05,-0.07,-0.07,-0.02,0.02,0.05,0.06,0.07,0.06,0.06,0.05,0.02,0.02,0.04,0.01,0.04,0.06,0.06,0.05,0.04,0.07,0.10,0.08,1541131488,0.07,0.06,0.06,0.06,0.04,0.02,0.00,-0.01,-0.01,0.00,0.01,0.02,0.02,0.01,-0.01,0.00,0.00,0.00,-0.04,-0.05,-0.02,0.02,0.06,0.02,0.06,0.11,0.10,0.10,0.11,0.08,0.02,-0.05,-0.08,-0.05,0.00,0.05,0.07,0.08,0.07,0.06,0.06,0.07,0.07,0.07,0.06,0.04,0.01,0.02,0.02,0.02,0.06,0.08,0.12,0.26,0.40,0.47,0.31,0.14,-0.08,-0.41,-0.42,-0.24,-0.06,0.01,0.04,0.05,0.05,0.06,0.08,0.05,0.05,0.10,0.10,0.07,0.07,0.06,0.06,0.06,0.06,0.08,0.11,0.12,0.12,0.12,0.13,0.12,0.12,0.12,0.11,0.08,0.07,0.02,0.06,0.13,0.13,0.08,0.05,0.01,0.00,0.01,0.02,0.02,0.00,-0.04,-0.05,-0.06,-0.06,-0.07,-0.06,-0.05,-0.02,-0.01,0.00,0.02,0.07,0.13,0.10,0.04,0.01,0.02,0.06,0.10,0.08,0.05,0.02,0.04,0.04,0.05,0.08,0.11,0.14,0.18,0.18,0.17,0.17,0.13,0.10,0.05,0.02,-0.01,-0.06,-0.07,-0.05,-0.02,-0.07,-0.16,-0.18,-0.17,-0.12,-0.10,-0.05,-0.02,-0.02,-0.07,-0.11,-0.11,-0.07,-0.07,-0.08,-0.04,0.00,0.01,0.02,0.02,0.04,0.04,0.04,0.04,0.04,0.04,0.05,0.05,0.05,0.08,0.25,0.32,0.31,0.28,0.19,0.12,1541131489,0.20,0.37,0.49,0.38,0.26,0.10,-0.25,-0.40,-0.28,-0.14,-0.06,-0.04,-0.02,0.00,0.05,0.10,0.11,0.11,0.08,0.08,0.10,0.10,0.08,0.07,0.05,0.01,0.01,0.02,0.05,0.10,0.11,0.07,0.07,0.11,0.12,0.13,0.13,0.17,0.19,0.19,0.17,0.16,0.14,0.12,0.08,0.06,0.01,0.00,0.01,-0.02,-0.10,-0.11,-0.07,-0.02,0.01,0.01,0.00,-0.02,-0.04,-0.04,-0.04,-0.02,0.00,0.00,-0.01,-0.02,-0.04,-0.04,-0.05,-0.08,-0.12,-0.13,-0.14,-0.14,-0.14,-0.10,-0.05,-0.01,0.01,0.02,0.02,0.12,0.18,0.20,0.19,0.17,0.12,0.10,0.08,0.10,0.10,0.08,0.10,0.08,0.10,0.11,0.11,0.13,0.12,0.10,0.10,0.10,0.10,0.10,0.11,0.11,0.13,0.11,0.07,0.05,0.06,0.07,0.07,0.06,0.02,0.01,0.02,0.02,0.01,0.01,0.01,-0.01,-0.01,-0.02,-0.01,0.06,0.25,0.44,0.48,0.34,0.22,-0.07,-0.42,-0.42,-0.25,-0.12,-0.07,-0.05,-0.04,-0.02,-0.02,-0.04,-0.05,-0.05,-0.02,0.02,0.07,0.11,0.12,0.12,0.12,0.12,0.14,0.16,0.18,0.18,0.18,0.16,0.14,0.12,0.11,0.11,0.12,0.13,0.14,0.13,0.12,0.12,0.11,0.08,0.05,0.00,-0.05,-0.07,-0.06,-0.05,-0.05,-0.10,-0.11,-0.13,1541131490,-0.14,-0.12,-0.12,-0.12,-0.14,-0.13,-0.07,0.02,0.10,0.12,0.10,0.08,0.11,0.14,0.17,0.18,0.17,0.13,0.08,0.05,0.02,0.00,0.00,0.00,0.01,0.02,0.05,0.06,0.06,0.06,0.07,0.10,0.08,0.07,0.10,0.12,0.12,0.08,0.05,0.06,0.07,0.08,0.07,0.05,0.00,-0.01,0.00,0.02,0.04,0.06,0.06,0.06,0.05,0.02,0.00,-0.02,-0.02,-0.01,0.00,0.02,0.05,0.07,0.10,0.12,0.12,0.11,0.06,0.06,0.17,0.35,0.49,0.34,0.24,0.16,-0.11,-0.50,-0.52,-0.36,-0.24,-0.12,-0.05,0.00,0.04,0.07,0.11,0.12,0.14,0.13,0.11,0.07,0.05,0.06,0.07,0.07,0.07,0.06,0.06,0.05,0.06,0.07,0.04,0.02,0.06,0.11,0.14,0.13,0.12,0.12,0.12,0.12,0.08,0.06,0.05,0.06,0.07,0.06,0.01,-0.02,-0.04,-0.06,-0.05,-0.05,-0.07,-0.10,-0.12,-0.13,-0.11,-0.11,-0.08,-0.04,-0.01,0.00,0.00,0.00,0.02,0.07,0.12,0.11,0.11,0.10,0.08,0.08,0.08,0.08,0.07,0.05,0.02,0.01,0.00,-0.04,-0.02,-0.01,0.00,0.02,0.04,0.01,0.01,0.04,0.06,0.08,0.10,0.12,0.12,0.12,0.12,0.11,0.10,0.10,0.12,0.11,0.10,0.08,0.07,0.08,0.10,0.11,0.10,0.08,0.06,0.05,1541131491,0.05,0.05,0.02,0.04,0.04,0.06,0.05,0.02,0.07,0.24,0.42,0.41,0.31,0.22,-0.01,-0.29,-0.28,-0.11,0.01,0.05,0.05,0.02,0.02,0.02,0.02,0.05,0.05,0.02,0.00,-0.02,-0.02,0.00,0.01,0.04,0.08,0.12,0.16,0.19,0.20,0.20,0.19,0.11,0.02,-0.04,-0.05,-0.02,0.02,0.06,0.07,0.07,0.10,0.11,0.11,0.11,0.10,0.10,0.07,0.02,-0.05,-0.11,-0.17,-0.19,-0.19,-0.16,-0.12,-0.08,-0.04,0.06,0.14,0.18,0.17,0.12,0.05,-0.01,-0.02,0.01,0.05,0.05,0.07,0.10,0.13,0.18,0.19,0.16,0.07,-0.04,-0.11,-0.10,-0.06,-0.04,-0.02,0.01,0.05,0.06,0.05,0.02,0.02,0.02,0.02,0.01,0.01,0.00,-0.01,0.00,0.01,0.01,0.00,0.00,0.02,0.05,0.06,0.08,0.10,0.10,0.10,0.07,0.07,0.08,0.08,0.07,0.05,0.01,-0.01,-0.02,-0.05,-0.05,-0.02,0.12,0.35,0.46,0.34,0.18,-0.06,-0.44,-0.47,-0.29,-0.12,-0.02,0.00,0.01,0.04,0.08,0.10,0.10,0.07,0.05,0.04,0.06,0.07,0.07,0.07,0.07,0.10,0.11,0.10,0.10,0.10,0.10,0.10,0.10,0.11,0.11,0.11,0.10,0.07,0.07,0.07,0.07,0.07,0.08,0.10,0.13,0.17,0.17,0.16,0.16,0.12,0.08,0.04,-0.02,1541131492,-0.06,-0.07,-0.07,-0.06,-0.06,-0.05,-0.01,0.00,0.04,0.07,0.10,0.07,0.04,0.05,0.05,0.01,-0.04,-0.06,-0.05,-0.01,0.01,0.02,0.05,0.08,0.11,0.12,0.10,0.06,0.02,0.01,0.01,-0.01,-0.06,-0.07,-0.02,0.01,0.04,0.04,-0.01,-0.04,-0.06,-0.06,-0.07,-0.08,-0.07,-0.05,0.01,0.04,0.05,0.02,0.02,0.05,0.06,0.07,0.07,0.07,0.08,0.11,0.16,0.18,0.17,0.12,0.10,0.07,0.10,0.25,0.43,0.49,0.31,0.14,-0.05,-0.31,-0.30,-0.13,-0.01,0.06,0.10,0.08,0.07,0.04,0.01,0.00,0.02,0.05,0.08,0.10,0.11,0.10,0.07,0.07,0.06,0.05,0.04,0.04,0.02,0.02,0.05,0.08,0.12,0.12,0.12,0.13,0.13,0.11,0.11,0.12,0.08,0.04,0.00,0.02,0.06,0.07,0.06,0.00,-0.05,-0.06,-0.08,-0.11,-0.14,-0.16,-0.14,-0.12,-0.08,-0.05,-0.01,0.01,0.05,0.06,0.08,0.10,0.11,0.12,0.11,0.10,0.08,0.08,0.08,0.08,0.08,0.08,0.08,0.07,0.07,0.06,0.06,0.05,0.02,0.01,0.01,0.01,0.01,0.00,0.00,0.01,0.02,0.02,0.05,0.07,0.07,0.07,0.07,0.06,0.06,0.05,0.05,0.07,0.08,0.07,0.06,0.05,0.04,0.01,0.01,0.02,0.04,0.06,0.06,0.06,0.06,0.06,1541131492,0.04,0.02,0.02,0.11,0.31,0.50,0.40,0.26,0.19,0.12,-0.11,-0.25,-0.17,-0.04,0.07,0.11,0.13,0.13,0.13,0.11,0.08,0.04,0.00,-0.04,-0.05,-0.05,-0.05,-0.05,-0.08,-0.11,-0.16,-0.22,-0.25,-0.19,-0.10,-0.04,-0.04,-0.05,-0.07,-0.06,-0.01,0.01,0.04,0.04,0.06,0.10,0.08,0.05,0.02,0.05,0.10,0.17,0.22,0.19,0.12,0.10,0.13,0.16,0.20,0.22,0.17,0.08,0.00,-0.05,-0.10,-0.08,-0.04,0.08,0.19,0.22,0.19,0.14,0.10,0.08,0.06,0.01,-0.02,-0.05,-0.05,-0.05,-0.04,-0.02,-0.14,-0.16,0.07,0.20,0.23,0.19,0.12,0.06,0.02,0.00,-0.01,-0.01,-0.04,-0.05,-0.08,-0.08,-0.08,-0.08,-0.07,-0.05,-0.01,0.01,0.02,0.04,0.05,0.06,0.07,0.05,0.01,0.00,0.02,0.07,0.08,0.08,0.06,0.06,0.10,0.13,0.14,0.13,0.11,0.10,0.12,0.26,0.43,0.53,0.42,0.26,0.11,-0.20,-0.35,-0.26,-0.13,-0.05,0.00,0.02,0.04,0.05,0.05,0.08,0.13,0.13,0.12,0.11,0.11,0.12,0.11,0.08,0.08,0.08,0.08,0.07,0.06,0.05,0.05,0.05,0.05,0.05,0.07,0.08,0.08,0.07,0.07,0.08,0.10,0.11,0.08,0.05,0.02,-0.01,-0.04,-0.05,-0.07,-0.08,-0.11,-0.12,-0.13,-0.13,1541131493,-0.11,-0.08,-0.07,-0.05,-0.04,0.00,0.01,0.05,0.07,0.07,0.05,0.02,0.02,0.06,0.10,0.11,0.11,0.10,0.08,0.07,0.08,0.06,0.02,0.02,0.04,0.06,0.10,0.12,0.13,0.10,0.05,0.04,0.04,0.02,0.01,-0.01,0.00,0.01,0.02,0.01,0.00,0.02,0.04,0.05,0.04,0.05,0.06,0.06,0.07,0.07,0.07,0.06,0.06,0.07,0.06,0.06,0.06,0.06,0.07,0.07,0.07,0.08,0.07,0.05,0.04,0.04,0.01,0.00,0.08,0.25,0.41,0.38,0.20,0.08,-0.13,-0.32,-0.32,-0.22,-0.12,-0.06,-0.01,0.02,0.01,-0.02,-0.07,-0.07,-0.01,0.04,0.05,0.07,0.10,0.14,0.17,0.14,0.14,0.17,0.17,0.14,0.13,0.10,0.06,0.04,0.06,0.10,0.11,0.10,0.08,0.06,0.04,0.05,0.06,0.05,0.05,0.04,0.01,-0.01,-0.05,-0.07,-0.06,-0.02,0.02,0.05,0.06,0.05,0.02,0.01,0.01,0.01,-0.01,-0.01,0.00,0.02,0.07,0.08,0.11,0.12,0.10,0.05,-0.02,-0.07,-0.06,0.02,0.20,0.36,0.44,0.32,0.13,-0.02,-0.08,-0.08,-0.02,0.02,0.05,0.05,0.01,-0.02,-0.04,-0.02,0.00,0.01,0.04,0.08,0.13,0.14,0.10,0.00,-0.11,-0.19,-0.19,-0.16,-0.10,-0.04,0.00,0.04,0.06,0.04,-0.02,-0.10,-0.11,-0.08,1541131494,-0.02,0.05,0.11,0.17,0.22,0.24,0.26,0.25,0.20,0.17,0.13,0.16,0.26,0.36,0.32,0.11,0.00,-0.10,-0.28,-0.28,-0.17,-0.06,0.00,0.01,0.01,0.02,0.04,0.06,0.06,0.07,0.08,0.08,0.07,0.06,0.06,0.06,0.06,0.05,0.05,0.07,0.08,0.10,0.11,0.10,0.07,0.07,0.05,0.02,0.02,0.02,0.05,0.06,0.07,0.06,0.04,0.05,0.05,0.06,0.06,0.05,0.04,0.00,-0.04,-0.06,-0.06,-0.05,-0.02,-0.01,-0.01,0.00,0.02,0.05,0.05,0.02,0.00,0.00,0.00,0.02,0.02,0.05,0.07,0.08,0.07,0.05,0.01,0.02,0.04,0.04,0.02,0.00,-0.02,0.01,0.04,0.05,0.07,0.07,0.06,0.05,0.05,0.02,0.00,-0.02,-0.04,-0.02,0.01,0.05,0.06,0.04,0.02,0.04,0.05,0.05,0.02,0.02,0.04,0.07,0.12,0.14,0.13,0.12,0.11,0.10,0.10,0.10,0.08,0.06,0.04,0.01,0.00,0.00,0.04,0.07,0.11,0.24,0.38,0.40,0.18,0.05,0.00,-0.10,-0.08,0.00,0.05,0.04,0.00,-0.04,-0.05,-0.04,-0.01,0.01,0.05,0.06,0.07,0.07,0.08,0.10,0.08,0.07,0.07,0.07,0.07,0.06,0.05,0.04,0.04,0.05,0.05,0.04,0.02,0.02,0.04,0.05,0.06,0.07,0.07,0.08,0.08,0.08,0.07,0.05,1541131495,0.02,-0.01,-0.02,-0.04,-0.05,-0.05,-0.05,-0.05,-0.05,-0.05,-0.05,-0.02,0.00,0.01,0.01,0.02,0.04,0.05,0.06,0.06,0.05,0.05,0.05,0.06,0.07,0.07,0.07,0.07,0.06,0.06,0.07,0.08,0.10,0.10,0.08,0.06,0.02,0.00,-0.02,-0.02,-0.01,0.00,0.00,0.02,0.04,0.05,0.05,0.05,0.06,0.07,0.06,0.06,0.05,0.06,0.06,0.06,0.06,0.07,0.07,0.10,0.11,0.11,0.10,0.10,0.10,0.10,0.06,0.04,0.05,0.05,0.02,0.00,-0.01,-0.01,0.00,0.01,0.04,0.06,0.10,0.22,0.36,0.43,0.28,0.10,-0.01,-0.25,-0.32,-0.20,-0.10,-0.04,-0.01,0.00,0.00,0.01,0.02,0.04,0.05,0.05,0.05,0.06,0.07,0.07,0.06,0.05,0.05,0.06,0.05,0.05,0.07,0.10,0.11,0.11,0.11,0.08,0.08,0.08,0.08,0.10,0.08,0.07,0.08,0.07,0.06,0.05,0.05,0.04,0.02,0.01,0.00,-0.02,-0.04,-0.04,-0.04,-0.02,-0.02,-0.02,0.00,0.00,0.01,0.02,0.02,0.00,-0.02,-0.02,-0.01,0.01,0.01,0.00,0.01,0.01,0.01,0.02,0.05,0.07,0.08,0.08,0.08,0.08,0.07,0.06,0.05,0.05,0.05,0.02,0.00,0.01,0.02,0.04,0.04,0.04,0.04,0.05,0.06,0.07,0.07,0.07,0.06,0.06,0.05,0.06,1541131496,0.06,0.06,0.05,0.04,0.04,0.05,0.06,0.05,0.06,0.05,0.04,0.02,0.01,0.01,0.02,0.02,0.02,0.04,0.05,0.06,0.07,0.10,0.11,0.11,0.14,0.29,0.42,0.38,0.17,0.04,-0.12,-0.28,-0.25,-0.12,-0.04,-0.01,0.00,0.00,0.00,0.02,0.05,0.05,0.07,0.07,0.07,0.08,0.08,0.10,0.11,0.12,0.12,0.13,0.12,0.10,0.07,0.05,0.06,0.08,0.11,0.12,0.11,0.10,0.08,0.06,0.05,0.01,0.00,-0.01,-0.01,0.00,0.04,0.06,0.05,0.01,-0.04,-0.07,-0.07,-0.06,-0.05,-0.02,-0.01,0.00,0.02,0.04,0.05,0.05,0.05,0.05,0.04,0.05,0.05,0.05,0.05,0.06,0.06,0.07,0.07,0.06,0.06,0.06,0.04,0.02,0.04,0.05,0.06,0.07,0.07,0.10,0.10,0.08,0.07,0.07,0.08,0.08,0.08,0.08,0.06,0.05,0.05,0.04,0.02,0.00,0.00,-0.01,-0.04,-0.02,-0.01,0.00,-0.01,0.00,0.01,0.02,0.02,0.01,0.01,0.01,0.01,0.00,-0.04,-0.05,-0.01,0.05,0.08,0.08,0.06,0.06,0.05,0.06,0.06,0.07,0.18,0.36,0.49,0.42,0.18,0.05,-0.18,-0.35,-0.26,-0.12,-0.01,0.04,0.05,0.05,0.04,0.02,0.04,0.04,0.05,0.05,0.06,0.07,0.06,0.06,0.06,0.07,0.08,0.10,0.10,0.07,1541131497,0.05,0.06,0.06,0.05,0.04,0.04,0.05,0.07,0.08,0.10,0.10,0.08,0.07,0.06,0.05,0.05,0.05,0.02,0.01,0.00,0.00,-0.01,-0.02,-0.02,-0.01,0.00,0.00,0.01,0.01,0.01,0.01,0.02,0.02,0.02,0.02,0.02,0.04,0.04,0.04,0.06,0.07,0.08,0.08,0.06,0.05,0.05,0.04,0.05,0.05,0.05,0.05,0.04,0.04,0.02,0.02,0.02,0.02,0.04,0.05,0.06,0.06,0.07,0.07,0.07,0.07,0.07,0.06,0.06,0.06,0.06,0.06,0.07,0.07,0.05,0.05,0.05,0.05,0.05,0.05,0.04,0.04,0.01,0.01,0.01,0.01,0.01,0.02,0.02,0.02,0.02,0.02,0.02,0.02,0.04,0.05,0.16,0.34,0.48,0.40,0.18,0.05,-0.22,-0.40,-0.29,-0.11,-0.01,0.02,0.04,0.04,0.04,0.05,0.06,0.06,0.06,0.07,0.06,0.06,0.05,0.04,0.02,0.04,0.05,0.05,0.05,0.06,0.06,0.06,0.06,0.06,0.07,0.07,0.07,0.07,0.08,0.10,0.11,0.10,0.10,0.10,0.08,0.07,0.06,0.04,0.02,0.00,-0.02,-0.04,-0.05,-0.05,-0.06,-0.05,-0.04,-0.02,0.00,0.00,0.01,0.02,0.02,0.04,0.05,0.06,0.05,0.05,0.05,0.05,0.05,0.05,0.05,0.05,0.05,0.05,0.05,0.05,0.05,0.05,0.05,0.05,0.05,0.05,0.05,1541131498,0.05,0.05,0.04,0.05,0.05,0.06,0.06,0.06,0.05,0.05,0.05,0.06,0.06,0.05,0.05,0.05,0.06,0.05,0.05,0.05,0.05,0.05,0.05,0.05,0.04,0.02,0.02,0.02,0.04,0.04,0.04,0.04,0.04,0.05,0.04,0.05,0.05,0.05,0.07,0.23,0.41,0.47,0.31,0.18,-0.04,-0.34,-0.35,-0.18,-0.06,0.00,0.02,0.02,0.02,0.04,0.05,0.04,0.05,0.06,0.06,0.05,0.05,0.05,0.06,0.06,0.06,0.06,0.07,0.07,0.07,0.07,0.06,0.07,0.07,0.08,0.08,0.08,0.08,0.10,0.10,0.10,0.10,0.08,0.07,0.06,0.05,0.05,0.02,0.01,-0.01,-0.02,-0.05,-0.06,-0.06,-0.06,-0.05,-0.04,-0.02,-0.01,0.00,0.01,0.02,0.02,0.04,0.04,0.05,0.04,0.05,0.05,0.05,0.05,0.05,0.06,0.05,0.05,0.05,0.05,0.06,0.05,0.05,0.05,0.05,0.06,0.06,0.06,0.05,0.05,0.05,0.06,0.05,0.05,0.05,0.05,0.05,0.05,0.05,0.06,0.06,0.06,0.05,0.05,0.05,0.04,0.04,0.02,0.05,0.05,0.05,0.05,0.04,0.04,0.02,0.02,0.02,0.04,0.04,0.04,0.05,0.05,0.04,0.04,0.04,0.05,0.02,0.07,0.24,0.43,0.49,0.34,0.19,-0.07,-0.40,-0.36,-0.19,-0.07,0.00,0.01,0.02,0.04,0.04,0.05,1541131499,0.05,0.05,0.05,0.06,0.06,0.06,0.06,0.05,0.06,0.05,0.05,0.06,0.06,0.07,0.07,0.08,0.08,0.08,0.08,0.08,0.08,0.10,0.10,0.08,0.08,0.07,0.06,0.05,0.06,0.05,0.04,0.02,0.01,-0.01,-0.05,-0.06,-0.07,-0.07,-0.06,-0.04,-0.02,-0.01,0.01,0.04,0.06,0.07,0.06,0.05,0.02,0.01,0.00,0.00,0.00,0.00,0.01,0.02,0.06,0.07,0.07,0.08,0.07,0.07,0.07,0.08,0.08,0.08,0.08,0.08,0.08,0.08,0.07,0.07,0.06,0.05,0.04,0.04,0.05,0.05,0.04,0.04,0.04,0.04,0.05,0.05,0.05,0.05,0.05,0.06,0.06,0.05,0.05,0.05,0.05,0.04,0.04,0.04,0.04,0.05,0.06,0.06,0.05,0.05,0.05,0.05,0.05,0.06,0.18,0.36,0.43,0.29,0.17,-0.05,-0.30,-0.30,-0.14,-0.04,0.01,0.02,0.02,0.04,0.04,0.04,0.04,0.04,0.02,0.02,0.02,0.02,0.02,0.04,0.04,0.05,0.05,0.05,0.05,0.05,0.06,0.05,0.06,0.06,0.08,0.11,0.12,0.17,0.22,0.24,0.19,0.13,0.13,0.14,0.14,0.11,0.06,0.01,0.00,-0.01,-0.02,-0.04,-0.06,-0.10,-0.13,-0.10,-0.12,-0.16,-0.17,-0.16,-0.11,-0.06,-0.02,0.00,0.00,0.04,0.07,0.08,0.10,0.11,0.11,0.11,0.10,0.10,1541131500,0.08,0.06,0.05,0.04,0.04,0.05,0.07,0.07,0.07,0.07,0.08,0.10,0.10,0.08,0.05,0.02,0.01,-0.02,-0.02,0.01,0.06,0.08,0.10,0.07,0.02,0.00,-0.02,-0.02,0.00,0.01,0.06,0.10,0.12,0.11,0.10,0.11,0.13,0.12,0.10,0.05,0.00,-0.06,-0.12,-0.13,0.02,0.26,0.40,0.26,0.11,-0.04,-0.24,-0.24,-0.11,0.00,0.05,0.07,0.07,0.06,0.05,0.02,0.04,0.07,0.10,0.11,0.11,0.08,0.07,0.05,0.05,0.05,0.05,0.05,0.05,0.06,0.07,0.08,0.08,0.08,0.08,0.10,0.10,0.10,0.10,0.08,0.07,0.06,0.06,0.05,0.06,0.06,0.05,0.04,0.00,-0.04,-0.05,-0.06,-0.06,-0.05,-0.04,-0.01,-0.01,0.00,0.00,0.01,0.01,0.01,0.02,0.02,0.04,0.05,0.06,0.07,0.08,0.06,0.05,0.05,0.05,0.06,0.07,0.06,0.05,0.05,0.05,0.04,0.04,0.04,0.04,0.02,0.01,0.01,0.01,0.00,0.01,0.01,0.01,0.00,0.01,0.02,0.02,0.02,0.02,0.02,0.04,0.04,0.02,0.04,0.07,0.10,0.10,0.08,0.07,0.06,0.05,0.06,0.07,0.08,0.08,0.07,0.08,0.11,0.11,0.12,0.23,0.36,0.38,0.19,0.04,-0.07,-0.22,-0.24,-0.14,-0.07,-0.02,-0.01,-0.01,0.00,0.01,0.02,0.02,0.02,1541131501,0.02,0.04,0.05,0.06,0.07,0.10,0.11,0.12,0.12,0.12,0.11,0.10,0.08,0.08,0.07,0.06,0.06,0.06,0.07,0.07,0.08,0.08,0.08,0.08,0.07,0.06,0.05,0.02,0.01,-0.01,-0.04,-0.05,-0.06,-0.06,-0.05,-0.05,-0.02,0.00,0.01,0.04,0.05,0.07,0.08,0.08,0.10,0.10,0.07,0.06,0.05,0.05,0.05,0.06,0.06,0.02,0.01,0.00,0.00,-0.01,0.00,0.00,0.01,0.02,0.02,0.01,0.00,0.00,0.00,-0.01,-0.01,-0.01,0.00,0.02,0.05,0.06,0.07,0.07,0.07,0.06,0.07,0.11,0.12,0.11,0.10,0.08,0.07,0.06,0.06,0.07,0.08,0.08,0.08,0.10,0.11,0.11,0.11,0.12,0.12,0.12,0.17,0.28,0.34,0.18,-0.05,-0.16,-0.29,-0.32,-0.19,-0.06,0.02,0.05,0.05,0.04,0.02,0.02,0.05,0.05,0.05,0.05,0.05,0.06,0.05,0.04,0.02,0.01,0.02,0.02,0.05,0.04,0.02,0.02,0.05,0.07,0.10,0.12,0.13,0.12,0.12,0.12,0.11,0.10,0.08,0.06,0.05,0.04,0.02,0.01,0.00,-0.02,-0.04,-0.05,-0.05,-0.04,-0.01,0.00,0.02,0.04,0.05,0.05,0.06,0.07,0.08,0.10,0.10,0.08,0.06,0.05,0.01,-0.01,-0.01,0.01,0.04,0.06,0.06,0.05,0.06,0.07,0.08,0.07,0.07,0.06,1541131501,0.06,0.06,0.07,0.08,0.08,0.07,0.06,0.05,0.05,0.05,0.05,0.05,0.05,0.06,0.05,0.02,0.01,0.00,-0.01,-0.01,0.00,0.01,0.00,0.00,0.00,0.00,0.00,-0.01,-0.04,-0.05,-0.06,-0.06,-0.06,-0.05,-0.04,0.00,0.11,0.31,0.44,0.37,0.22,0.12,-0.05,-0.14,-0.12,-0.05,0.01,0.05,0.05,0.05,0.05,0.06,0.06,0.06,0.06,0.06,0.05,0.04,0.04,0.04,0.05,0.05,0.05,0.06,0.07,0.07,0.08,0.10,0.08,0.07,0.07,0.07,0.07,0.08,0.08,0.10,0.11,0.10,0.10,0.10,0.08,0.07,0.06,0.02,0.00,-0.01,-0.02,-0.05,-0.05,-0.04,-0.04,-0.02,-0.01,-0.01,0.00,0.01,0.02,0.02,0.02,0.02,0.04,0.05,0.04,0.04,0.02,0.02,0.02,0.02,0.02,0.02,0.05,0.08,0.11,0.12,0.12,0.11,0.10,0.06,0.00,-0.05,-0.06,-0.05,-0.01,0.02,0.06,0.07,0.10,0.11,0.12,0.12,0.12,0.08,0.04,0.00,-0.04,-0.02,0.01,0.05,0.07,0.08,0.08,0.06,0.05,0.04,0.01,-0.02,-0.04,-0.02,-0.01,0.01,0.04,0.05,0.06,0.07,0.10,0.11,0.11,0.11,0.19,0.34,0.43,0.29,0.06,-0.04,-0.17,-0.24,-0.13,-0.02,0.04,0.04,0.02,0.01,0.04,0.06,0.08,0.08,0.06,0.04,0.01,0.00,1541131502,0.00,0.01,0.01,0.02,0.02,0.04,0.05,0.06,0.05,0.05,0.06,0.07,0.08,0.10,0.10,0.11,0.11,0.11,0.11,0.11,0.10,0.06,0.04,0.02,0.01,0.00,0.00,-0.02,-0.02,-0.02,-0.02,-0.02,-0.02,-0.01,0.00,0.00,0.00,0.00,0.00,0.00,0.01,0.02,0.02,0.02,0.02,0.01,0.02,0.04,0.02,0.02,0.04,0.06,0.08,0.10,0.08,0.07,0.08,0.10,0.10,0.07,0.06,0.05,0.05,0.05,0.06,0.07,0.08,0.08,0.10,0.11,0.13,0.14,0.13,0.12,0.10,0.06,0.04,0.04,0.02,0.02,0.00,-0.01,-0.02,-0.02,-0.02,-0.01,-0.01,-0.01,0.01,0.01,0.00,0.00,0.02,0.05,0.07,0.10,0.10,0.08,0.08,0.10,0.11,0.11,0.08,0.06,0.04,0.02,0.01,-0.01,0.07,0.19,0.22,0.05,-0.08,-0.22,-0.40,-0.37,-0.20,-0.07,-0.06,-0.05,-0.04,0.01,0.07,0.10,0.13,0.18,0.23,0.24,0.22,0.18,0.14,0.12,0.08,0.07,0.07,0.06,0.06,0.07,0.10,0.10,0.10,0.10,0.10,0.12,0.12,0.11,0.08,0.08,0.10,0.10,0.08,0.08,0.07,0.05,0.00,-0.01,-0.01,-0.01,-0.02,-0.02,-0.04,-0.04,-0.05,-0.05,-0.04,-0.02,0.01,0.02,0.04,0.06,0.08,0.11,0.11,0.13,0.13,0.10,0.05,0.04,0.02,0.01,1541131503,0.02,0.04,0.04,0.06,0.06,0.07,0.07,0.07,0.10,0.10,0.11,0.12,0.11,0.10,0.07,0.05,0.05,0.05,0.01,-0.02,-0.06,-0.07,-0.07,-0.06,-0.07,-0.06,-0.02,0.00,0.01,-0.04,-0.08,-0.11,-0.10,-0.04,0.04,0.08,0.08,0.08,0.06,0.04,0.02,0.00,-0.02,-0.02,-0.01,0.00,0.01,0.02,0.05,0.08,0.14,0.17,0.16,0.11,0.08,0.08,0.11,0.12,0.10,0.10,0.23,0.43,0.47,0.30,0.16,-0.05,-0.25,-0.24,-0.10,-0.01,0.02,0.02,0.00,0.00,0.00,0.00,0.05,0.08,0.06,0.02,0.02,0.00,-0.01,0.00,0.04,0.05,0.06,0.05,0.05,0.07,0.07,0.06,0.07,0.08,0.11,0.13,0.12,0.11,0.10,0.10,0.08,0.07,0.05,0.04,0.02,0.02,0.02,0.02,0.01,0.00,-0.01,-0.02,-0.02,-0.02,0.00,0.00,0.02,0.02,0.04,0.05,0.04,0.01,-0.01,-0.01,-0.01,0.00,0.01,0.01,0.00,0.02,0.05,0.05,0.06,0.08,0.10,0.10,0.10,0.10,0.10,0.11,0.11,0.12,0.12,0.12,0.11,0.08,0.06,0.02,0.01,0.00,-0.02,-0.05,-0.06,-0.06,-0.05,-0.04,-0.05,-0.04,-0.02,-0.01,-0.01,-0.01,0.01,0.06,0.12,0.17,0.19,0.18,0.14,0.11,0.08,0.08,0.07,0.04,0.01,0.02,0.04,0.05,0.04,0.02,1541131504,0.01,0.02,0.04,0.06,0.07,0.11,0.24,0.36,0.30,0.08,-0.01,-0.11,-0.20,-0.12,-0.02,0.00,-0.01,-0.02,-0.01,0.01,0.02,0.02,0.02,0.02,0.02,0.01,0.01,0.01,0.04,0.06,0.10,0.11,0.11,0.08,0.07,0.07,0.08,0.10,0.08,0.08,0.10,0.11,0.12,0.11,0.12,0.11,0.10,0.08,0.10,0.10,0.07,0.05,0.05,0.02,-0.02,-0.05,-0.05,-0.07,-0.10,-0.10,-0.07,-0.05,-0.04,-0.02,-0.05,-0.04,0.00,0.02,0.05,0.06,0.10,0.13,0.17,0.18,0.19,0.19,0.17,0.12,0.05,-0.02,-0.08,-0.12,-0.11,-0.08,-0.05,-0.02,-0.02,-0.02,-0.06,-0.06,-0.05,-0.04,-0.04,-0.05,-0.04,-0.01,0.02,0.02,0.00,0.05,0.17,0.20,0.13,0.08,0.04,0.01,0.00,0.08,0.22,0.22,0.14,0.13,0.12,0.08,0.06,0.08,0.11,0.13,0.11,0.06,0.04,0.04,0.02,0.00,0.00,0.01,0.04,0.06,0.07,0.07,0.05,0.02,0.02,0.05,0.14,0.28,0.35,0.19,0.02,-0.02,-0.14,-0.19,-0.11,-0.01,0.05,0.06,0.05,0.04,0.04,0.04,0.05,0.06,0.07,0.06,0.05,0.05,0.05,0.05,0.06,0.07,0.07,0.06,0.05,0.05,0.02,0.01,0.02,0.02,0.04,0.05,0.05,0.05,0.07,0.08,0.10,0.10,0.08,0.07,0.05,0.01,1541131505,-0.02,-0.06,-0.07,-0.07,-0.08,-0.07,-0.05,0.00,0.05,0.07,0.10,0.08,0.07,0.06,0.05,0.02,0.00,-0.01,-0.01,-0.02,-0.02,-0.04,-0.02,-0.02,0.00,0.00,0.02,0.05,0.07,0.11,0.14,0.17,0.14,0.10,0.08,0.10,0.11,0.11,0.10,0.08,0.10,0.11,0.11,0.10,0.07,0.04,0.01,0.00,0.00,0.00,0.01,0.02,0.02,0.04,0.06,0.06,0.06,0.04,0.05,0.06,0.07,0.06,0.10,0.08,0.05,0.04,0.01,0.00,0.01,0.02,0.04,0.05,0.06,0.05,0.06,0.06,0.07,0.07,0.07,0.07,0.07,0.07,0.08,0.07,0.06,0.06,0.06,0.06,0.06,0.06,0.08,0.18,0.34,0.38,0.25,0.16,0.02,-0.17,-0.32,-0.25,-0.11,-0.01,0.05,0.06,0.07,0.08,0.08,0.08,0.10,0.10,0.08,0.06,0.04,0.00,-0.04,-0.05,-0.05,-0.05,-0.06,-0.05,-0.01,0.00,0.00,0.00,0.01,0.06,0.10,0.12,0.10,0.06,0.04,0.05,0.08,0.11,0.11,0.08,0.05,0.02,0.02,0.01,-0.02,-0.05,-0.07,-0.07,-0.06,-0.07,-0.07,-0.06,-0.01,0.04,0.06,0.07,0.11,0.10,0.07,0.04,0.02,0.00,0.00,0.02,0.05,0.05,0.05,0.05,0.06,0.05,0.06,0.06,0.06,0.08,0.08,0.07,0.07,0.05,0.05,0.05,0.05,0.05,0.05,0.05,1541131506,0.06,0.05,0.05,0.04,0.04,0.05,0.05,0.05,0.06,0.06,0.05,0.05,0.05,0.05,0.04,0.05,0.05,0.06,0.07,0.06,0.06,0.05,0.05,0.04,0.01,0.00,0.01,0.04,0.05,0.04,0.04,0.06,0.05,0.04,0.05,0.05,0.06,0.06,0.07,0.06,0.05,0.04,0.02,0.04,0.05,0.05,0.13,0.29,0.43,0.40,0.17,0.01,-0.18,-0.34,-0.28,-0.14,-0.04,0.02,0.05,0.06,0.07,0.07,0.07,0.07,0.07,0.08,0.08,0.07,0.07,0.07,0.07,0.07,0.05,0.04,0.04,0.05,0.04,0.02,0.00,0.00,0.00,0.01,0.04,0.06,0.07,0.06,0.04,0.02,0.05,0.06,0.07,0.10,0.10,0.11,0.11,0.11,0.07,0.04,0.01,0.00,-0.01,-0.04,-0.05,-0.02,-0.01,-0.01,0.00,0.02,0.05,0.05,0.05,0.05,0.06,0.06,0.07,0.06,0.05,0.05,0.05,0.05,0.05,0.05,0.05,0.06,0.06,0.04,0.00,-0.01,0.00,0.01,0.01,0.01,0.01,0.04,0.04,0.05,0.05,0.05,0.05,0.05,0.06,0.05,0.05,0.05,0.06,0.05,0.04,0.04,0.02,0.02,0.04,0.04,0.04,0.02,0.02,0.01,0.02,0.04,0.05,0.07,0.11,0.13,0.14,0.14,0.13,0.11,0.10,0.08,0.08,0.08,0.07,0.08,0.10,0.10,0.11,0.08,0.07,0.06,0.05,0.04,1541131507,0.02,0.01,0.02,0.14,0.34,0.32,0.22,0.11,-0.10,-0.43,-0.49,-0.32,-0.16,-0.08,-0.05,-0.04,-0.01,0.01,0.02,0.04,0.07,0.11,0.12,0.12,0.11,0.08,0.07,0.07,0.05,0.05,0.05,0.07,0.11,0.13,0.14,0.13,0.11,0.11,0.11,0.11,0.10,0.07,0.05,0.04,0.02,0.01,0.01,0.01,0.01,0.04,0.05,0.04,0.00,-0.02,-0.04,-0.04,-0.02,-0.01,-0.01,0.00,0.00,0.01,0.02,0.02,0.04,0.04,0.02,0.04,0.06,0.07,0.08,0.10,0.08,0.07,0.05,0.04,0.04,0.05,0.06,0.06,0.06,0.06,0.06,0.05,0.04,0.01,0.01,0.00,0.01,0.02,0.01,0.00,0.00,0.01,0.02,0.02,0.04,0.02,0.01,0.00,0.00,0.02,0.05,0.07,0.08,0.11,0.12,0.12,0.12,0.10,0.07,0.05,0.02,0.00,-0.02,-0.01,0.01,0.04,0.05,0.06,0.06,0.06,0.07,0.08,0.07,0.04,0.02,0.02,0.05,0.05,0.05,0.02,0.00,-0.02,-0.02,-0.02,0.07,0.25,0.40,0.35,0.17,0.04,-0.17,-0.26,-0.17,-0.06,0.02,0.07,0.08,0.10,0.12,0.14,0.13,0.11,0.08,0.06,0.02,0.00,-0.02,-0.02,-0.02,-0.01,0.00,0.00,0.01,0.02,0.05,0.06,0.06,0.07,0.10,0.12,0.13,0.14,0.14,0.17,0.16,0.12,0.08,0.07,1541131508,0.05,0.05,0.04,0.02,0.01,0.00,-0.04,-0.07,-0.08,-0.08,-0.07,-0.05,-0.04,-0.02,0.00,0.01,0.04,0.05,0.06,0.06,0.05,0.04,0.05,0.06,0.07,0.06,0.06,0.06,0.06,0.06,0.05,0.05,0.05,0.05,0.05,0.05,0.05,0.06,0.06,0.06,0.06,0.06,0.06,0.05,0.04,0.04,0.05,0.04,0.02,0.01,0.02,0.04,0.05,0.06,0.07,0.08,0.10,0.08,0.08,0.08,0.08,0.10,0.10,0.10,0.10,0.08,0.08,0.06,0.05,0.02,-0.02,-0.05,-0.05,-0.04,-0.04,-0.05,-0.06,-0.07,-0.08,-0.08,-0.06,-0.02,0.02,0.06,0.12,0.26,0.38,0.31,0.08,-0.04,-0.16,-0.24,-0.13,0.04,0.12,0.11,0.08,0.06,0.05,0.05,0.04,0.04,0.05,0.07,0.11,0.14,0.17,0.14,0.10,0.06,0.04,0.01,-0.01,-0.01,-0.01,-0.01,0.00,0.01,0.04,0.05,0.07,0.07,0.08,0.08,0.10,0.11,0.11,0.11,0.10,0.10,0.10,0.08,0.05,0.01,-0.01,-0.04,-0.05,-0.07,-0.06,-0.04,-0.02,0.00,0.02,0.06,0.08,0.08,0.07,0.06,0.06,0.06,0.05,0.04,0.04,0.02,0.02,0.02,0.02,0.02,0.02,0.02,0.04,0.05,0.05,0.05,0.05,0.05,0.06,0.06,0.07,0.08,0.07,0.06,0.06,0.05,0.02,0.01,0.00,-0.01,0.00,0.00,1541131509,0.00,0.01,0.04,0.04,0.06,0.07,0.08,0.08,0.08,0.07,0.06,0.05,0.04,0.04,0.05,0.04,0.02,0.02,0.05,0.06,0.05,0.05,0.06,0.06,0.06,0.07,0.07,0.07,0.07,0.08,0.10,0.11,0.14,0.26,0.43,0.36,0.24,0.17,0.11,-0.08,-0.28,-0.22,-0.10,-0.02,-0.01,-0.01,-0.02,-0.01,-0.01,0.01,0.02,0.02,0.02,0.02,0.02,0.01,0.01,0.01,0.01,0.00,0.01,0.00,0.01,0.01,0.02,0.02,0.02,0.02,0.05,0.06,0.08,0.11,0.11,0.10,0.07,0.05,0.02,0.01,0.00,-0.02,-0.05,-0.07,-0.07,-0.06,-0.06,-0.05,-0.04,-0.02,-0.02,-0.01,0.00,0.02,0.05,0.06,0.07,0.07,0.06,0.06,0.06,0.06,0.07,0.08,0.08,0.10,0.08,0.07,0.07,0.08,0.10,0.11,0.10,0.06,0.05,0.05,0.05,0.05,0.05,0.04,0.04,0.05,0.05,0.05,0.05,0.06,0.07,0.07,0.05,0.04,0.04,0.04,0.04,0.05,0.04,0.04,0.05,0.05,0.04,0.04,0.05,0.04,0.04,0.04,0.04,0.04,0.04,0.04,0.04,0.04,0.04,0.02,0.04,0.04,0.04,0.04,0.05,0.07,0.08,0.11,0.12,0.12,0.11,0.10,0.08,0.07,0.07,0.07,0.12,0.26,0.37,0.31,0.04,-0.11,-0.25,-0.40,-0.34,-0.19,-0.11,-0.08,-0.06,-0.01,1541131509,0.02,0.06,0.07,0.08,0.08,0.10,0.12,0.12,0.08,0.06,0.06,0.08,0.07,0.07,0.07,0.08,0.08,0.10,0.11,0.12,0.13,0.14,0.14,0.14,0.14,0.16,0.16,0.14,0.13,0.12,0.08,0.07,0.05,0.04,0.02,0.01,-0.02,-0.07,-0.11,-0.11,-0.11,-0.10,-0.07,-0.05,-0.02,-0.01,0.00,0.00,0.01,0.04,0.06,0.07,0.08,0.08,0.07,0.06,0.05,0.04,0.02,0.02,0.01,0.01,0.02,0.02,0.02,0.04,0.04,0.04,0.02,0.01,0.01,0.01,0.02,0.04,0.05,0.05,0.06,0.05,0.06,0.06,0.07,0.08,0.08,0.10,0.10,0.11,0.11,0.10,0.08,0.07,0.06,0.06,0.05,0.02,0.01,0.02,0.02,0.02,0.02,0.02,0.02,0.01,0.04,0.04,0.01,0.00,-0.04,-0.02,-0.01,0.01,0.05,0.10,0.11,0.17,0.31,0.44,0.38,0.13,-0.01,-0.13,-0.29,-0.26,-0.16,-0.07,-0.01,0.02,0.04,0.05,0.06,0.07,0.07,0.07,0.07,0.07,0.05,0.05,0.05,0.06,0.06,0.06,0.07,0.07,0.07,0.08,0.08,0.10,0.11,0.12,0.13,0.13,0.14,0.14,0.13,0.12,0.11,0.08,0.07,0.07,0.07,0.06,0.04,0.00,-0.02,-0.02,-0.04,-0.06,-0.06,-0.06,-0.06,-0.06,-0.05,-0.04,-0.01,0.01,0.01,0.00,-0.01,-0.01,0.01,0.02,1541131510,0.02,0.01,-0.01,-0.01,0.00,0.00,0.00,0.00,0.02,0.04,0.05,0.05,0.07,0.07,0.08,0.10,0.11,0.08,0.06,0.05,0.02,0.01,0.01,0.01,0.01,0.01,0.02,0.05,0.04,0.02,0.02,0.02,0.02,0.04,0.06,0.07,0.07,0.07,0.08,0.10,0.10,0.10,0.10,0.10,0.08,0.07,0.08,0.10,0.07,0.05,0.04,0.05,0.04,0.04,0.04,0.04,0.04,0.02,0.02,0.04,0.05,0.06,0.07,0.08,0.10,0.20,0.38,0.48,0.32,0.12,-0.04,-0.28,-0.36,-0.24,-0.08,-0.01,0.01,0.01,0.01,0.04,0.05,0.04,0.02,0.04,0.04,0.05,0.05,0.06,0.06,0.07,0.07,0.08,0.07,0.08,0.10,0.11,0.13,0.13,0.12,0.12,0.10,0.10,0.10,0.10,0.10,0.08,0.06,0.04,0.01,0.00,-0.02,-0.04,-0.05,-0.06,-0.07,-0.10,-0.12,-0.16,-0.17,-0.14,-0.11,-0.07,-0.01,0.01,0.00,0.00,0.01,0.01,0.02,0.05,0.08,0.12,0.14,0.18,0.19,0.18,0.16,0.14,0.13,0.13,0.11,0.08,0.06,0.05,0.02,0.00,0.00,0.00,0.00,0.00,-0.01,0.00,0.02,0.05,0.06,0.07,0.07,0.05,0.04,0.02,0.01,0.00,-0.01,0.00,0.00,0.01,0.01,0.04,0.07,0.10,0.12,0.13,0.14,0.13,0.12,0.11,0.10,0.08,0.07,0.07,1541131511,0.07,0.07,0.05,0.05,0.04,0.02,0.01,-0.01,-0.01,-0.01,0.00,0.01,0.02,0.02,0.02,0.02,0.02,0.04,0.05,0.06,0.11,0.28,0.44,0.46,0.28,0.10,-0.17,-0.43,-0.38,-0.20,-0.06,0.01,0.04,0.04,0.05,0.08,0.11,0.12,0.12,0.11,0.10,0.07,0.04,0.02,0.02,0.02,0.01,0.00,0.01,0.02,0.05,0.07,0.08,0.07,0.08,0.08,0.08,0.12,0.13,0.13,0.14,0.13,0.12,0.11,0.11,0.08,0.06,0.05,0.01,0.01,0.00,-0.02,-0.02,-0.04,-0.06,-0.07,-0.08,-0.10,-0.10,-0.06,-0.04,-0.02,-0.01,-0.02,-0.06,-0.07,-0.05,0.00,0.05,0.08,0.10,0.10,0.10,0.10,0.08,0.07,0.07,0.07,0.07,0.07,0.10,0.11,0.11,0.11,0.10,0.04,0.00,0.00,0.00,0.01,0.01,0.02,0.04,0.05,0.05,0.05,0.04,0.05,0.06,0.07,0.07,0.07,0.06,0.05,0.06,0.04,0.04,0.04,0.05,0.04,0.04,0.05,0.06,0.05,0.02,0.01,0.01,0.01,0.02,0.04,0.05,0.05,0.05,0.05,0.06,0.07,0.10,0.10,0.18,0.32,0.40,0.25,0.06,-0.05,-0.19,-0.24,-0.14,-0.02,0.04,0.07,0.07,0.06,0.05,0.06,0.06,0.05,0.04,0.05,0.08,0.11,0.12,0.11,0.11,0.10,0.08,0.06,0.05,0.02,0.00,-0.04,1541131512,-0.05,-0.04,-0.01,0.00,0.01,0.01,0.01,0.02,0.04,0.04,0.02,0.01,0.00,-0.01,-0.02,0.00,0.02,0.04,0.02,0.05,0.06,0.06,0.07,0.08,0.07,0.05,0.00,0.00,0.00,0.01,0.01,0.02,0.04,0.05,0.05,0.05,0.04,0.02,0.02,0.04,0.07,0.10,0.11,0.11,0.11,0.12,0.12,0.11,0.12,0.12,0.11,0.11,0.10,0.06,0.04,0.04,0.04,0.05,0.04,0.01,0.04,0.04,0.01,0.02,0.07,0.10,0.00,-0.08,-0.07,-0.06,-0.02,-0.02,0.00,0.04,0.02,-0.01,-0.02,0.00,0.00,0.01,0.04,0.05,0.07,0.08,0.10,0.12,0.08,0.06,0.08,0.08,0.10,0.10,0.19,0.37,0.44,0.28,0.07,-0.14,-0.38,-0.40,-0.24,-0.10,0.00,0.05,0.06,0.06,0.06,0.07,0.08,0.10,0.10,0.07,0.07,0.07,0.07,0.07,0.08,0.08,0.10,0.08,0.10,0.10,0.08,0.10,0.11,0.11,0.11,0.08,0.10,0.10,0.10,0.11,0.12,0.13,0.13,0.12,0.12,0.08,0.05,0.02,0.00,-0.02,-0.04,-0.04,-0.04,-0.05,-0.07,-0.08,-0.07,-0.07,-0.07,-0.08,-0.08,-0.10,-0.12,-0.12,-0.10,-0.08,-0.07,-0.02,0.02,0.07,0.10,0.11,0.11,0.08,0.06,0.04,0.04,0.07,0.08,0.10,0.11,0.08,0.05,0.02,0.02,0.04,0.02,0.04,1541131513,0.06,0.07,0.07,0.06,0.07,0.10,0.11,0.11,0.13,0.12,0.04,-0.02,-0.02,0.01,0.02,0.04,0.05,0.06,0.06,0.04,0.02,0.05,0.05,0.05,0.04,0.05,0.05,0.04,0.04,0.05,0.05,0.04,0.04,0.05,0.05,0.06,0.11,0.24,0.43,0.53,0.40,0.26,0.18,-0.04,-0.19,-0.13,-0.05,-0.02,-0.04,-0.04,-0.05,-0.05,-0.04,-0.05,-0.05,